"Latest: Time (s)","Latest: Z-Axis Acceleration (m/s²)","Latest: Potential (mV)"
0,-21.2848342155,10.1018193271
0.0002,-23.5665270862,10.4785771575
0.0004,-25.6625827409,10.4785771575
0.0006,-27.7962358065,10.4785771575
0.0008,-28.4682895253,10.4785771575
0.001,-29.4035251201,11.2320928182
0.0012,-32.0235946885,11.2320928182
0.0014,-32.0987895102,11.2320928182
0.0016,-31.6123730074,11.2320928182
0.0018,-31.3115937206,11.2320928182
0.002,-28.2074574876,11.2320928182
0.0022,-24.2409306433,10.8553349879
0.0024,-20.3120012098,10.4785771575
0.0026,-15.335043949,10.4785771575
0.0028,-11.5941015698,10.4785771575
0.003,-8.63800514198,10.4785771575
0.0032,-3.1370339675,10.1018193271
0.0034,1.87752070415,9.74860886112
0.0036,5.24483881309,9.37185103074
0.0038,8.76254656541,9.37185103074
0.004,13.0651002692,8.99509320036
0.0042,15.7603646592,8.24157753959
0.0044,16.8083924866,8.24157753959
0.0046,17.593238438,7.86481970921
0.0048,18.2300445842,7.48806187883
0.005,20.3613478116,7.11130404845
0.0052,22.9814173799,7.11130404845
0.0054,23.655820937,6.35778838769
0.0056,25.6014869483,5.9810305573
0.0058,28.8184154138,5.60427272692
0.006,30.5408467982,5.60427272692
0.0062,33.0105267232,5.22751489654
0.0064,36.7138716916,5.22751489654
0.0066,40.3443716765,4.49754660018
0.0068,43.824482018,4.49754660018
0.007,46.7053836241,4.1207887698
0.0072,49.1374661382,3.74403093942
0.0074,51.2335217929,3.36727310903
0.0076,52.99120075,2.99051527865
0.0078,54.4880476693,2.99051527865
0.008,55.7969075344,2.61375744827
0.0082,56.8825327726,2.61375744827
0.0084,57.7801709565,2.61375744827
0.0086,58.5297693353,2.23699961789
0.0088,58.9785884273,2.23699961789
0.009,59.5401997518,1.86024178751
0.0092,60.1018110763,1.86024178751
0.0094,59.1642256433,2.23699961789
0.0096,56.5089085023,1.48348395713
0.0098,54.0016311665,1.48348395713
0.01,55.0872564047,1.48348395713
0.0102,56.3585188589,1.10672612675
0.0104,56.76974054,1.10672612675
0.0106,55.1248538155,1.10672612675
0.0108,52.9536033391,1.10672612675
0.011,52.3919920146,1.10672612675
0.0112,53.1415903934,1.10672612675
0.0114,53.216785215,1.10672612675
0.0116,51.6823408849,1.10672612675
0.0118,50.2230913764,1.10672612675
0.012,47.8286062731,1.10672612675
0.0122,44.1605088774,1.10672612675
0.0124,40.9435804118,1.10672612675
0.0126,37.8370943406,1.10672612675
0.0128,34.39458141,1.10672612675
0.013,30.3152623332,1.10672612675
0.0132,25.1526678563,1.10672612675
0.0134,19.7268915035,1.10672612675
0.0136,15.2363507455,1.10672612675
0.0138,10.0714064305,1.10672612675
0.014,4.19681098574,1.10672612675
0.0142,-0.366574755753,1.10672612675
0.0144,-3.95947732977,1.10672612675
0.0146,-7.55237990379,0.729968296364
0.0148,-11.2181274613,0.353210465983
0.015,-14.4750031759,0.353210465983
0.0152,-17.0927229061,0.353210465983
0.0154,-19.8631821178,0.353210465983
0.0156,-22.744083724,0.353210465983
0.0158,-25.1385688272,0.353210465983
0.016,-27.2346244819,0
0.0162,-29.0299008499,0
0.0164,-31.6875678291,0
0.0166,-35.054885938,0
0.0168,-38.4222040469,0
0.017,-41.6767299233,0
0.0172,-45.3448273191,0
0.0174,-49.1985619308,0
0.0176,-53.0146991317,0
0.0178,-56.2339774355,0
0.018,-59.1524764524,0
0.0182,-62.7054317774,0
0.0184,-65.7743204378,0
0.0186,-67.8327786816,0
0.0188,-70.0416265689,0
0.019,-71.8369029368,0
0.0192,-72.5113064938,0
0.0194,-72.922528175,0
0.0196,-72.8849307641,0
0.0198,-72.4361116721,0
0.02,-71.7617081151,0
0.0202,-70.5632906443,0
0.0204,-68.7680142764,0
0.0206,-67.0479327302,0
0.0208,-65.3630987566,0
0.021,-63.1190032967,0
0.0212,-60.6493233718,0
0.0214,-58.2172408576,0
0.0216,-56.4572120624,0
0.0218,-54.5115460511,0
0.022,-52.4906852181,0
0.0222,-50.5826166176,0
0.0224,-48.4865609629,0
0.0226,-46.8792716492,0
0.0228,-45.0816454431,0
0.023,-42.5391205346,0
0.0232,-40.2926752366,0
0.0234,-38.4598014578,0
0.0236,-35.689342246,0
0.0238,-33.034025105,0
0.024,-30.3763581258,0
0.0242,-26.971442606,0
0.0244,-23.0801105834,0
0.0246,-19.0383889174,0
0.0248,-15.0366145004,0
0.025,-11.1429326396,0
0.0252,-7.25160061702,0
0.0254,-3.09943655666,0
0.0256,1.05507734188,0
0.0258,4.90881195365,0
0.026,8.50171452767,0
0.0262,12.2802543177,0
0.0264,15.8731568918,0
0.0266,18.716461087,0
0.0268,21.4469730498,0
0.027,24.104640029,0
0.0272,25.8999163969,0
0.0274,28.1087642841,0
0.0276,30.5032493874,0
0.0278,32.4113179879,0
0.028,34.2817891775,0
0.0282,36.3778448322,0
0.0284,38.0603289675,0
0.0286,39.6323707086,0
0.0288,41.6156341307,0
0.029,43.5237027312,0
0.0292,45.6197583859,0
0.0294,47.5654243972,0
0.0296,49.623882641,0
0.0298,51.4943538306,0
0.03,52.9536033391,0
0.0302,54.114423399,0
0.0304,54.8616719396,0
0.0306,55.9096997669,0
0.0308,56.8825327726,0
0.031,57.1809622212,0
0.0312,56.9953250051,0
0.0314,57.032922416,0
0.0316,56.2081292155,0
0.0318,54.748879707,0
0.032,53.4400198419,0
0.0322,51.9431729226,0
0.0324,50.072701733,0
0.0326,48.4254651703,0
0.0328,46.8181758566,0
0.033,44.8349124345,0
0.0332,42.8140516015,0
0.0334,40.1187872114,0
0.0336,36.3402474213,0
0.0338,32.3361231662,0
0.034,30.8768736577,0
0.0342,29.3048319167,0
0.0344,27.3967633162,0
0.0346,28.1839591058,0
0.0348,26.0503060403,0
0.035,21.634960104,0
0.0352,19.0900853573,0
0.0354,15.2363507455,0
0.0356,11.7562404041,0
0.0358,10.8210048093,0
0.036,8.95053361965,0
0.0362,8.05054559751,0
0.0364,7.00486760834,0
0.0366,3.41196503432,0
0.0368,-2.53782523214,0
0.037,-8.11399122831,0
0.0372,-12.2285578778,0
0.0374,-14.3246135325,0
0.0376,-15.4102387707,0
0.0378,-16.0822924896,0
0.038,-17.2431125495,0
0.0382,-18.6271672363,0
0.0384,-21.7712507183,0
0.0386,-26.8234028008,0
0.0388,-31.2739963098,0
0.039,-34.0820529324,0
0.0392,-35.2029257432,0
0.0394,-35.5788998517,0
0.0396,-35.50370503,0
0.0398,-35.4285102083,0
0.04,-36.2133561597,0
0.0402,-37.710203079,0
0.0404,-39.545426696,0
0.0406,-40.7790917394,0
0.0408,-41.0422736153,0
0.041,-40.179883004,0
0.0412,-39.1694525875,0
0.0414,-38.4973988686,0
0.0416,-38.1237745984,0
0.0418,-38.6101911012,0
0.042,-40.5182597016,0
0.0422,-42.3135360696,0
0.0424,-42.7999525724,0
0.0426,-42.649562929,0
0.0428,-41.6767299233,0
0.043,-41.0046762045,0
0.0432,-40.8918839719,0
0.0434,-40.2926752366,0
0.0436,-39.8062587337,0
0.0438,-39.5078292851,0
0.044,-37.6726056682,0
0.0442,-34.4556772026,0
0.0444,-31.2387487371,0
0.0446,-28.0194704334,0
0.0448,-25.3618034541,0
0.045,-22.9673183509,0
0.0452,-20.4976384259,0
0.0454,-18.702362058,0
0.0456,-16.4206691872,0
0.0458,-13.5021701702,0
0.046,-10.4708789208,0
0.0462,-7.58997731464,0
0.0464,-5.1578948005,0
0.0466,-3.2122287892,0
0.0468,-1.56499222649,0
0.047,-0.96578349112,0
0.0472,-0.815393847734,0
0.0474,0.0446469253802,0
0.0476,1.50389643386,0
0.0478,3.03834076403,0
0.048,4.34720062913,0
0.0482,6.03203460269,0
0.0484,8.1257404192,0
0.0486,10.2969908956,0
0.0488,12.5034889446,0
0.049,14.4867523668,0
0.0492,16.3971708054,0
0.0494,18.8645008922,0
0.0496,21.634960104,0
0.0498,24.2550296723,0
0.05,26.8727494025,0
0.0502,28.7432205922,0
0.0504,29.6056112034,0
0.0506,30.4656519766,0
0.0508,30.9896658902,0
0.051,30.9144710685,0
0.0512,30.7640814251,0
0.0514,30.5032493874,0
0.0516,29.9416380629,0
0.0518,29.6432086143,0
0.052,29.4928189709,0
0.0522,28.9312076464,0
0.0524,28.5575833761,0
0.0526,28.5951807869,0
0.0528,28.9312076464,0
0.053,29.3800267384,0
0.0532,29.7912484195,0
0.0534,30.3152623332,0
0.0536,30.801678836,0
0.0538,31.1753031063,0
0.054,31.1400555336,0
0.0542,30.7640814251,0
0.0544,30.5408467982,0
0.0546,30.2024701006,0
0.0548,29.5304163817,0
0.055,28.7432205922,0
0.0552,27.6223477813,0
0.0554,25.862318986,0
0.0556,23.6182235261,0
0.0558,21.3341808172,0
0.056,19.165280179,0
0.0562,16.8459898974,0
0.0564,14.3387125616,0
0.0566,11.8314352258,0
0.0568,9.62258733853,0
0.057,7.71451873807,0
0.0572,5.69365790507,0
0.0574,3.63519966122,0
0.0576,1.6166886664,0
0.0578,-0.256132361392,0
0.058,-2.16420096185,0
0.0582,-4.67147829768,0
0.0584,-7.62757472548,0
0.0586,-9.27246145002,0
0.0588,-9.23486403917,0
0.059,-9.98446241792,0
0.0592,-8.86123976888,0
0.0594,-8.74844753635,0
0.0596,-12.5669345754,0
0.0598,-15.5958759868,0
0.06,-18.5895698254,0
0.0602,-21.2848342155,0
0.0604,-20.8736125343,0
0.0606,-20.2368063881,0
0.0608,-20.3120012098,0
0.061,-19.9007795287,0
0.0612,-20.5728332476,0
0.0614,-22.8944733673,0
0.0616,-25.4369982758,0
0.0618,-27.86908079,0
0.062,-29.1802904932,0
0.0622,-27.7962358065,0
0.0624,-24.5769575027,0
0.0626,-20.9112099452,0
0.0628,-18.2911403768,0
0.063,-18.8151542905,0
0.0632,-22.4433044372,0
0.0634,-25.5121930975,0
0.0636,-27.2722218928,0
0.0638,-26.4474286923,0
0.064,-23.4537348537,0
0.0642,-20.1240141556,0
0.0644,-17.6543342306,0
0.0646,-17.4686970146,0
0.0648,-19.4872080094,0
0.065,-22.2576672211,0
0.0652,-23.9025539457,0
0.0654,-23.1177079942,0
0.0656,-20.5352358367,0
0.0658,-17.3183073712,0
0.066,-14.0614316566,0
0.0662,-12.3037526995,0
0.0664,-12.0429206618,0
0.0666,-12.5669345754,0
0.0668,-13.1261960618,0
0.067,-12.865364024,0
0.0672,-10.7317109585,0
0.0674,-7.17640579533,0
0.0676,-3.47306082695,0
0.0678,-0.742548864218,0
0.068,0.455868606514,0
0.0682,0.455868606514,0
0.0684,0.15743915792,0
0.0686,0.754298055108,0
0.0688,2.81275629895,0
0.069,5.32003363478,0
0.0692,7.78971355976,0
0.0694,9.84817180361,0
0.0696,11.0442394362,0
0.0698,11.8314352258,0
0.07,12.3178517286,0
0.0702,12.5410863555,0
0.0704,13.4763219503,0
0.0706,14.8251290644,0
0.0708,16.2843785729,0
0.071,17.9292652974,0
0.0712,19.2028775899,0
0.0714,19.6892940927,0
0.0716,19.3885148059,0
0.0718,18.4908766219,0
0.072,17.7436280814,0
0.0722,18.0044601191,0
0.0724,18.8645008922,0
0.0726,19.5389044493,0
0.0728,19.5765018601,0
0.073,19.0524879465,0
0.0732,18.0796549408,0
0.0734,16.9188348809,0
0.0736,15.7979620701,0
0.0738,15.5347801941,0
0.074,15.6851698375,0
0.0742,16.021196697,0
0.0744,16.5076131998,0
0.0746,16.5828080215,0
0.0748,16.0587941078,0
0.075,15.1987533347,0
0.0752,13.8898934696,0
0.0754,12.8042682314,0
0.0756,12.3554491394,0
0.0758,12.1674620852,0
0.076,12.205059496,0
0.0762,12.2802543177,0
0.0764,11.8314352258,0
0.0766,10.633017755,0
0.0768,8.98813103049,0
0.077,7.41608928947,0
0.0772,6.29286664043,0
0.0774,5.84404754845,0
0.0776,5.54561809986,0
0.0778,5.20724140224,0
0.078,4.72082489941,0
0.0782,4.12161616405,0
0.0784,3.07593817488,0
0.0786,1.65428607725,0
0.0788,0.418271195667,0
0.079,-0.516964399139,0
0.0792,-1.33940776141,0
0.0794,-2.08900614016,0
0.0796,-2.94904691327,0
0.0798,-3.95947732977,0
0.08,-5.26833719487,0
0.0802,-6.87797634673,0
0.0804,-8.33722585521,0
0.0806,-9.53564332594,0
0.0808,-10.5084763316,0
0.081,-11.2557248722,0
0.0812,-11.8173361967,0
0.0814,-12.4165449321,0
0.0816,-13.2389882943,0
0.0818,-15.0366145004,0
0.082,-17.3183073712,0
0.0822,-17.9903610901,0
0.0824,-17.9551135174,0
0.0826,-17.8423212848,0
0.0828,-15.8966552735,0
0.083,-15.335043949,0
0.0832,-16.9822805117,0
0.0834,-17.6919316415,0
0.0836,-18.8903491122,0
0.0838,-19.9736245122,0
0.084,-19.1511811499,0
0.0842,-18.1031533226,0
0.0844,-16.90708569,0
0.0846,-15.1094594839,0
0.0848,-14.0990290674,0
0.085,-14.2494187108,0
0.0852,-14.8110300353,0
0.0854,-15.335043949,0
0.0856,-14.9238222679,0
0.0858,-13.1261960618,0
0.086,-10.2452944557,0
0.0862,-7.21400320617,0
0.0864,-5.1578948005,0
0.0866,-4.93231033543,0
0.0868,-5.98033816277,0
0.087,-7.06596340096,0
0.0872,-7.4771850821,0
0.0874,-6.54194948729,0
0.0876,-4.59628347598,0
0.0878,-2.68821487552,0
0.088,-1.71538186987,0
0.0882,-1.86342167508,0
0.0884,-2.61302005383,0
0.0886,-3.47306082695,0
0.0888,-3.54825564864,0
0.089,-2.34983817791,0
0.0892,-0.780146275065,0
0.0894,0.904687698494,0
0.0896,3.00074335319,0
0.0898,4.42239545082,0
0.09,5.35763104563,0
0.0902,5.73125531591,0
0.0904,5.91924237015,0
0.0906,6.70408832157,0
0.0908,8.20093524089,0
0.091,10.1466012522,0
0.0912,12.0170724418,0
0.0914,12.8418656423,0
0.0916,12.9546578748,0
0.0918,12.8042682314,0
0.092,12.6914759989,0
0.0922,13.3282821451,0
0.0924,14.3387125616,0
0.0926,15.0107662805,0
0.0928,15.572377605,0
0.093,15.7979620701,0
0.0932,15.572377605,0
0.0934,15.0859611022,0
0.0936,14.6371420102,0
0.0938,14.3387125616,0
0.094,14.3011151507,0
0.0942,14.674739421,0
0.0944,15.2739481564,0
0.0946,15.9460018753,0
0.0948,16.246781162,0
0.095,16.1339889295,0
0.0952,15.6851698375,0
0.0954,15.0483636913,0
0.0956,14.3387125616,0
0.0958,13.9274908805,0
0.096,13.8146986479,0
0.0962,13.4763219503,0
0.0964,12.8042682314,0
0.0966,11.530655939,0
0.0968,10.0714064305,0
0.097,8.64975433287,0
0.0972,7.22810223524,0
0.0974,6.03203460269,0
0.0976,4.8712145428,0
0.0978,3.78558930461,0
0.098,2.8503537098,0
0.0982,1.95271552584,0
0.0984,1.16786957442,0
0.0986,0.305478963128,0
0.0988,-0.667354042525,0
0.099,-1.33940776141,0
0.0992,-1.78822685339,0
0.0994,-1.97621390762,0
0.0996,-2.05140872931,0
0.0998,-2.46263041045,0
0.1,-2.94904691327,0
0.1002,-3.36026859441,0
0.1004,-3.95947732977,0
0.1006,-4.55868606514,0
0.1008,-4.89471292458,0
0.101,-5.38112942741,0
0.1012,-5.94274075193,0
0.1014,-6.61714430898,0
0.1016,-7.700419709,0
0.1018,-8.97403200142,0
0.102,-10.170099634,0
0.1022,-11.293322283,0
0.1024,-12.4165449321,0
0.1026,-13.1637934726,0
0.1028,-13.763002208,0
0.103,-14.3246135325,0
0.1032,-14.660640392,0
0.1034,-14.660640392,0
0.1036,-14.660640392,0
0.1038,-14.660640392,0
0.104,-14.5126005867,0
0.1042,-14.3622109434,0
0.1044,-14.0261840839,0
0.1046,-13.4269753486,0
0.1048,-12.7525717915,0
0.105,-12.1533630561,0
0.1052,-11.3309196939,0
0.1054,-10.8821006019,0
0.1056,-10.9196980127,0
0.1058,-11.0700876561,0
0.106,-11.4061145156,0
0.1062,-11.8549336075,0
0.1064,-11.8549336075,0
0.1066,-11.6669465533,0
0.1068,-11.4061145156,0
0.107,-11.0700876561,0
0.1072,-10.5836711533,0
0.1074,-10.170099634,0
0.1076,-9.57324073679,0
0.1078,-8.82364235804,0
0.108,-7.88840676323,0
0.1082,-6.72758670335,0
0.1084,-5.26833719487,0
0.1086,-3.73624270287,0
0.1088,-2.27464335621,0
0.109,-1.1913679562,0
0.1092,-0.479366988293,0
0.1094,0.0446469253802,0
0.1096,0.716700644261,0
0.1098,1.54149384471,0
0.11,2.21354756359,0
0.1102,2.73756147726,0
0.1104,3.00074335319,0
0.1106,2.92554853149,0
0.1108,2.69996406641,0
0.111,2.66236665557,0
0.1112,2.73756147726,0
0.1114,3.11353558573,0
0.1116,3.82318671545,0
0.1118,4.75842231026,0
0.112,5.69365790507,0
0.1122,6.48085369467,0
0.1124,7.04246501919,0
0.1126,7.52888152201,0
0.1128,8.20093524089,0
0.113,9.1361708357,0
0.1132,10.2217960739,0
0.1134,11.1570316687,0
0.1136,12.0170724418,0
0.1138,12.5034889446,0
0.114,12.6914759989,0
0.1142,12.6914759989,0
0.1144,12.5410863555,0
0.1146,12.2802543177,0
0.1148,12.0922672635,0
0.115,11.9818248691,0
0.1152,11.7938378149,0
0.1154,11.4202135446,0
0.1156,10.9713944526,0
0.1158,10.4849779498,0
0.116,10.1466012522,0
0.1162,9.9233666253,0
0.1164,9.77297698191,0
0.1166,9.84817180361,0
0.1168,10.0714064305,0
0.117,10.4097831281,0
0.1172,10.633017755,0
0.1174,10.7834073984,0
0.1176,10.633017755,0
0.1178,10.2969908956,0
0.118,9.99856144699,0
0.1182,9.81057439276,0
0.1184,9.51214494416,0
0.1186,8.83774138711,0
0.1188,8.1257404192,0
0.119,7.22810223524,0
0.1192,6.14247699705,0
0.1194,5.05920159703,0
0.1196,4.08636859138,0
0.1198,3.00074335319,0
0.12,1.91511811499,0
0.1202,1.05507734188,0
0.1204,0.267881552281,0
0.1206,-0.479366988293,0
0.1208,-1.22896536705,0
0.121,-1.93861649677,0
0.1212,-2.46263041045,0
0.1214,-2.76105985904,0
0.1216,-3.06183914581,0
0.1218,-3.32267118356,0
0.122,-3.58585305949,0
0.1222,-3.77149027554,0
0.1224,-4.03467215147,0
0.1226,-4.33310160006,0
0.1228,-4.74432328119,0
0.123,-5.23073978402,0
0.1232,-5.79235110854,0
0.1234,-6.27876761137,0
0.1236,-6.87797634673,0
0.1238,-7.4771850821,0
0.124,-8.22443362267,0
0.1242,-8.97403200142,0
0.1244,-9.57324073679,0
0.1246,-10.0596572396,0
0.1248,-10.5084763316,0
0.125,-10.844503191,0
0.1252,-11.0700876561,0
0.1254,-11.1805300505,0
0.1256,-11.0700876561,0
0.1258,-10.9196980127,0
0.126,-10.8069057802,0
0.1262,-10.6941135477,0
0.1264,-10.4708789208,0
0.1266,-10.0220598288,0
0.1268,-9.57324073679,0
0.127,-9.19726662833,0
0.1272,-8.82364235804,0
0.1274,-8.60040773114,0
0.1276,-8.4876154986,0
0.1278,-8.33722585521,0
0.128,-8.26203103352,0
0.1282,-8.18683621183,0
0.1284,-8.00119899577,0
0.1286,-7.77561453069,0
0.1288,-7.40199026041,0
0.129,-6.99076857927,0
0.1292,-6.6899892925,0
0.1294,-6.4667546656,0
0.1296,-5.98033816277,0
0.1298,-5.38112942741,0
0.13,-4.78192069204,0
0.1302,-4.147464384,0
0.1304,-3.4354634161,0
0.1306,-2.68821487552,0
0.1308,-1.93861649677,0
0.131,-1.37700517225,0
0.1312,-0.815393847734,0
0.1314,-0.293729772238,0
0.1316,0.305478963128,0
0.1318,0.904687698494,0
0.132,1.6166886664,0
0.1322,2.17595015274,0
0.1324,2.58952167205,0
0.1326,2.8503537098,0
0.1328,3.26157539093,0
0.133,3.74799189376,0
0.1332,4.27200580743,0
0.1334,4.75842231026,0
0.1336,5.24483881309,0
0.1338,5.65606049422,0
0.134,6.06963201353,0
0.1342,6.36806146213,0
0.1344,6.66649091072,0
0.1346,6.8920753758,0
0.1348,7.30329705693,0
0.135,7.63932391637,0
0.1352,7.9025057923,0
0.1354,8.08814300835,0
0.1356,8.1257404192,0
0.1358,8.08814300835,0
0.136,8.08814300835,0
0.1362,8.08814300835,0
0.1364,8.1257404192,0
0.1366,8.20093524089,0
0.1368,8.20093524089,0
0.137,8.1257404192,0
0.1372,8.05054559751,0
0.1374,7.9025057923,0
0.1376,7.71451873807,0
0.1378,7.49128411117,0
0.138,7.49128411117,0
0.1382,7.56412909468,0
0.1384,7.52888152201,0
0.1386,7.37849187863,0
0.1388,7.04246501919,0
0.139,6.66649091072,0
0.1392,6.29286664043,0
0.1394,6.03203460269,0
0.1396,5.69365790507,0
0.1398,5.39522845647,0
0.14,5.09679900788,0
0.1402,4.75842231026,0
0.1404,4.42239545082,0
0.1406,3.97357635884,0
0.1408,3.44956244517,0
0.141,2.96314594234,0
0.1412,2.6271190829,0
0.1414,2.25114497443,0
0.1416,2.10310516923,0
0.1418,1.99031293669,0
0.142,1.57909125555,0
0.1422,0.979882520187,0
0.1424,0.380673784821,0
0.1426,0.0822443362267,0
0.1428,-0.0681453071593,0
0.143,-0.441769577446,0
0.1432,-0.890588669427,0
0.1434,-1.4146025831,0
0.1436,-1.90101908593,0
0.1438,-2.27464335621,0
0.144,-2.87385209158,0
0.1442,-3.4354634161,0
0.1444,-3.88428250808,0
0.1446,-4.37069901091,0
0.1448,-4.78192069204,0
0.145,-5.1578948005,0
0.1452,-5.41872683825,0
0.1454,-5.68190871418,0
0.1456,-5.86754593023,0
0.1458,-6.13072780616,0
0.146,-6.42915725475,0
0.1462,-6.72758670335,0
0.1464,-6.87797634673,0
0.1466,-6.87797634673,0
0.1468,-6.87797634673,0
0.147,-6.87797634673,0
0.1472,-6.87797634673,0
0.1474,-6.95317116842,0
0.1476,-7.02836599012,0
0.1478,-7.06596340096,0
0.148,-6.99076857927,0
0.1482,-6.91557375758,0
0.1484,-6.84037893589,0
0.1486,-6.72758670335,0
0.1488,-6.57954689814,0
0.149,-6.42915725475,0
0.1492,-6.35396243306,0
0.1494,-6.24117020052,0
0.1496,-6.05553298446,0
0.1498,-5.75475369769,0
0.15,-5.4563242491,0
0.1502,-5.1578948005,0
0.1504,-4.93231033543,0
0.1506,-4.67147829768,0
0.1508,-4.33310160006,0
0.151,-4.07226956231,0
0.1512,-3.73624270287,0
0.1514,-3.47306082695,0
0.1516,-3.1370339675,0
0.1518,-2.79865726989,0
0.152,-2.31224076706,0
0.1522,-1.93861649677,0
0.1524,-1.67778445903,0
0.1526,-1.4146025831,0
0.1528,-1.07857572366,0
0.153,-0.704951453372,0
0.1532,-0.293729772238,0
0.1534,0.0822443362267,0
0.1536,0.418271195667,0
0.1538,0.716700644261,0
0.154,1.05507734188,0
0.1542,1.42870161217,0
0.1544,1.65428607725,0
0.1546,1.95271552584,0
0.1548,2.40153461782,0
0.155,2.77515888811,0
0.1552,3.14878315839,0
0.1554,3.44956244517,0
0.1556,3.59995208855,0
0.1558,3.8607841263,0
0.156,4.12161616405,0
0.1562,4.38479803997,0
0.1564,4.61038250505,0
