"Latest: Time (s)","Latest: Z-Axis Acceleration (m/s²)","Latest: Potential (mV)"
0,-60.9642016876,10.1018193271
0.0002,-60.5529800065,10.4785771575
0.0004,-59.9913686819,11.6088506486
0.0006,-58.644911406,11.985608479
0.0008,-59.6177444117,11.985608479
0.001,-62.5738408395,12.3623663094
0.0012,-63.8075058829,12.3623663094
0.0014,-62.5362434286,12.7391241398
0.0016,-61.7138000664,13.1158819702
0.0018,-62.1626191583,13.1158819702
0.002,-64.4443120291,13.1158819702
0.0022,-66.6155625055,12.7391241398
0.0024,-67.6236430838,12.3623663094
0.0026,-69.4212692899,11.985608479
0.0028,-70.8805187984,11.6088506486
0.003,-68.0372146031,11.2320928182
0.0032,-62.2730615527,11.2320928182
0.0034,-58.9433408546,10.4785771575
0.0036,-55.0896062428,9.74860886112
0.0038,-48.6158020627,9.37185103074
0.004,-39.8979024227,8.99509320036
0.0042,-30.3552095822,8.61833536997
0.0044,-20.1780604337,7.86481970921
0.0046,-8.65445400923,7.48806187883
0.0048,2.38508575057,7.11130404845
0.005,11.6645967151,6.35778838769
0.0052,19.8584824415,5.9810305573
0.0054,26.0714545839,5.60427272692
0.0056,31.5724257583,5.22751489654
0.0058,36.3237985541,4.87430443056
0.006,40.2151305767,4.87430443056
0.0062,43.6576435073,4.49754660018
0.0064,46.5761425243,4.49754660018
0.0066,48.9706276276,4.49754660018
0.0068,51.0666832823,4.49754660018
0.007,52.8243622393,4.49754660018
0.0072,54.2836117478,4.49754660018
0.0074,55.6324188619,4.49754660018
0.0076,56.7156942619,4.49754660018
0.0078,57.6885272676,4.49754660018
0.008,58.4757230572,4.87430443056
0.0082,59.1125292034,5.22751489654
0.0084,59.7093881006,5.22751489654
0.0086,60.2709994251,5.60427272692
0.0088,60.6822211063,5.9810305573
0.009,61.0581952147,6.35778838769
0.0092,61.3566246633,6.73454621807
0.0094,61.6550541119,7.11130404845
0.0096,61.8430411661,7.48806187883
0.0098,62.0310282204,7.86481970921
0.01,62.1790680256,8.61833536997
0.0102,62.2542628473,8.99509320036
0.0104,61.0581952147,8.99509320036
0.0106,58.1749437704,9.37185103074
0.0108,53.3107787422,10.1018193271
0.011,51.32751532,10.4785771575
0.0112,48.0729894436,10.8553349879
0.0114,42.7976027342,11.2320928182
0.0116,35.3509655484,11.6088506486
0.0118,24.910634524,11.6088506486
0.012,15.0319148241,11.985608479
0.0122,8.37247342788,12.3623663094
0.0124,5.79000127036,12.3623663094
0.0126,4.62918121048,12.3623663094
0.0128,1.33705792323,12.3623663094
0.013,-0.495815855538,12.3623663094
0.0132,-1.54384368288,11.985608479
0.0134,-5.3599808838,11.985608479
0.0136,-10.1865485012,11.985608479
0.0138,-13.591464021,11.6088506486
0.014,-14.4538546323,11.2320928182
0.0142,-13.2930345724,11.2320928182
0.0144,-13.5562164483,10.4785771575
0.0146,-15.6499222649,10.4785771575
0.0148,-16.5475604488,9.74860886112
0.015,-17.0339769516,9.37185103074
0.0152,-18.6436161035,8.99509320036
0.0154,-20.4764898823,8.24157753959
0.0156,-21.7125047639,7.48806187883
0.0158,-21.0381012068,7.11130404845
0.016,-20.7396717582,6.35778838769
0.0162,-22.3869083209,5.9810305573
0.0164,-22.0861290341,5.22751489654
0.0166,-19.65404652,4.49754660018
0.0168,-18.3451866549,4.1207887698
0.017,-16.3619232328,3.36727310903
0.0172,-12.8818128913,2.99051527865
0.0174,-7.68162100358,2.61375744827
0.0176,-1.58144109373,2.23699961789
0.0178,2.23469610719,1.48348395713
0.018,5.60201421613,1.10672612675
0.0182,10.0925549741,0.353210465983
0.0184,13.6478601373,0.353210465983
0.0186,15.5183313269,0
0.0188,17.2783601221,0
0.019,18.5496225764,0
0.0192,19.0360390792,0
0.0194,18.6624148089,0
0.0196,16.0799426514,0
0.0198,12.825416775,0
0.02,10.4685290826,0
0.0202,6.87562650855,0
0.0204,4.33075176188,0
0.0206,3.99472490244,0
0.0208,2.83390484256,0
0.021,1.41225274492,0
0.0212,0.251432685036,0
0.0214,-0.683802909771,0
0.0216,-1.20781682344,0
0.0218,-2.29109222346,0
0.022,-4.08871842956,0
0.0222,-5.54796793804,0
0.0224,-5.3599808838,0
0.0226,-4.98635661352,0
0.0228,-6.89442521398,0
0.023,-10.2617433229,0
0.0232,-13.5186190375,0
0.0234,-16.6603526814,0
0.0236,-20.2156578445,0
0.0238,-23.6205733643,0
0.024,-26.614267203,0
0.0242,-28.7855176794,0
0.0244,-30.9544183176,0
0.0246,-33.6872801185,0
0.0248,-36.7538189406,0
0.025,-39.1130564713,0
0.0252,-41.0587224826,0
0.0254,-42.5555694019,0
0.0256,-43.2276231208,0
0.0258,-42.5555694019,0
0.026,-41.2067622878,0
0.0262,-39.9730972444,0
0.0264,-38.9626668279,0
0.0266,-37.8770415897,0
0.0268,-37.4658199085,0
0.027,-38.1754710383,0
0.0272,-39.6723179576,0
0.0274,-41.8059710231,0
0.0276,-44.3508457698,0
0.0278,-46.7077334622,0
0.028,-48.989426333,0
0.0282,-51.3862612745,0
0.0284,-43.7892344453,0
0.0286,-27.28867076,0
0.0288,-25.1174202836,0
0.029,-32.3008755935,0
0.0292,-32.9752791506,0
0.0294,-35.1465296269,0
0.0296,-38.0650286439,0
0.0298,-36.6057791354,0
0.03,-33.0128765614,0
0.0302,-28.1111141223,0
0.0304,-20.3660474879,0
0.0306,-17.447548471,0
0.0308,-19.6164491092,0
0.031,-15.4642850488,0
0.0312,-7.75446598709,0
0.0314,-7.60642618188,0
0.0316,-9.17611808472,0
0.0318,-5.54796793804,0
0.032,-0.00939935271163,0
0.0322,1.29946051238,0
0.0324,0.326627506729,0
0.0326,1.60023979915,0
0.0328,5.82759868121,0
0.033,9.9445151689,0
0.0332,6.9132239194,0
0.0334,4.77957085386,0
0.0336,8.29727860619,0
0.0338,9.11972196845,0
0.034,6.53959964911,0
0.0342,6.16362554065,0
0.0344,7.9236543359,0
0.0346,12.0758183963,0
0.0348,13.6102627264,0
0.035,12.8630141859,0
0.0352,15.5183313269,0
0.0354,18.399232933,0
0.0356,19.5600529929,0
0.0358,19.5976504037,0
0.036,21.2824843773,0
0.0362,26.1842468164,0
0.0364,29.5891623362,0
0.0366,28.5787319197,0
0.0368,28.0171205952,0
0.037,30.1484238225,0
0.0372,32.4700639423,0
0.0374,31.0484118447,0
0.0376,27.2675222164,0
0.0378,25.7330778863,0
0.038,25.1738163999,0
0.0382,22.1801225613,0
0.0384,19.1864287226,0
0.0386,19.3344685278,0
0.0388,20.868912858,0
0.039,20.9441076797,0
0.0392,18.5872199872,0
0.0394,18.2511931278,0
0.0396,21.1320947339,0
0.0398,21.992135507,0
0.04,19.7480400471,0
0.0402,19.3720659387,0
0.0404,21.0568999122,0
0.0406,22.4785520099,0
0.0408,22.8521762801,0
0.041,22.5913442424,0
0.0412,23.3009953721,0
0.0414,24.4242180212,0
0.0416,22.8521762801,0
0.0418,19.2616235443,0
0.042,17.315957533,0
0.0422,16.4159695109,0
0.0424,14.5830957321,0
0.0426,11.6269993043,0
0.0428,9.64373588213,0
0.043,8.97168216325,0
0.0432,7.9236543359,0
0.0434,6.1260281298,0
0.0436,4.33075176188,0
0.0438,3.43311357792,0
0.044,3.39551616707,0
0.0442,2.42268316142,0
0.0444,0.700251777016,0
0.0446,1.26186310154,0
0.0448,2.72111261002,0
0.045,2.38508575057,0
0.0452,1.41225274492,0
0.0454,1.41225274492,0
0.0456,1.74827960436,0
0.0458,0.888238831249,0
0.046,-1.87987054233,0
0.0462,-5.39757829465,0
0.0464,-7.23045207342,0
0.0466,-8.76489640359,0
0.0468,-11.7209928314,0
0.047,-14.71468667,0
0.0472,-15.7251170865,0
0.0474,-16.3619232328,0
0.0476,-18.2323944224,0
0.0478,-20.1404630228,0
0.048,-21.2636856719,0
0.0482,-22.3117134992,0
0.0484,-23.6205733643,0
0.0486,-24.59340637,0
0.0488,-24.7061986025,0
0.049,-23.695768186,0
0.0492,-22.8357274129,0
0.0494,-23.3221439157,0
0.0496,-23.4325863101,0
0.0498,-22.3117134992,0
0.05,-22.2741160884,0
0.0502,-23.1341568615,0
0.0504,-23.695768186,0
0.0506,-24.0317950454,0
0.0508,-24.2949769214,0
0.051,-24.7813934242,0
0.0512,-25.8294212515,0
0.0514,-26.2406429327,0
0.0516,-25.716629019,0
0.0518,-25.4910445539,0
0.052,-26.3158377544,0
0.0522,-26.6518646138,0
0.0524,-26.0902532893,0
0.0526,-25.6414341973,0
0.0528,-25.1926151053,0
0.053,-24.0317950454,0
0.0532,-22.4973507153,0
0.0534,-21.0005037959,0
0.0536,-19.4308118931,0
0.0538,-17.7083805087,0
0.054,-15.3138954054,0
0.0542,-12.6186310154,0
0.0544,-10.93614688,0
0.0546,-10.1489510904,0
0.0548,-8.42886954415,0
0.055,-6.18477408425,0
0.0552,-4.79836955928,0
0.0554,-3.63989933758,0
0.0556,-1.95506536402,0
0.0558,-0.383023622999,0
0.056,0.888238831249,0
0.0562,1.97386406944,0
0.0564,2.83390484256,0
0.0566,3.73154302652,0
0.0568,5.00515531894,0
0.057,6.1260281298,0
0.0572,7.47483524392,0
0.0574,9.45809866607,0
0.0576,11.5894018934,0
0.0578,13.459873083,0
0.058,15.3702915217,0
0.0582,17.5767895707,0
0.0584,19.4472607604,0
0.0586,21.0568999122,0
0.0588,22.440954599,0
0.059,23.6017746589,0
0.0592,24.6873998971,0
0.0594,25.8082727079,0
0.0596,25.9210649405,0
0.0598,25.6602329027,0
0.06,25.9962597622,0
0.0602,26.3322866216,0
0.0604,25.9210649405,0
0.0606,25.4722458485,0
0.0608,25.0234267565,0
0.061,24.4994128429,0
0.0612,24.01299634,0
0.0614,23.4889824264,0
0.0616,23.1529555669,0
0.0618,23.3009953721,0
0.062,23.4513850155,0
0.0622,23.4513850155,0
0.0624,23.7145668914,0
0.0626,24.3114257886,0
0.0628,24.2385808051,0
0.063,23.338592783,0
0.0632,22.8521762801,0
0.0634,22.5913442424,0
0.0636,21.7689008801,0
0.0638,20.6832756419,0
0.064,19.6728452254,0
0.0642,18.5120251655,0
0.0644,17.4263999274,0
0.0646,15.7815132028,0
0.0648,13.4974704939,0
0.065,11.3661672665,0
0.0652,9.56854106043,0
0.0654,7.69806987082,0
0.0656,5.94039091375,0
0.0658,4.62918121048,0
0.066,3.13233429115,0
0.0662,1.52504497746,0
0.0664,0.289030095882,0
0.0666,-0.79659514231,0
0.0668,-1.87987054233,0
0.067,-2.77750872629,0
0.0672,-3.75269157012,0
0.0674,-4.83596697013,0
0.0676,-5.80879997578,0
0.0678,-6.74403557059,0
0.068,-8.35367472246,0
0.0682,-10.1865485012,0
0.0684,-11.4225633828,0
0.0686,-12.7690206587,0
0.0688,-14.3034649889,0
0.069,-15.6875196757,0
0.0692,-17.3723536493,0
0.0694,-19.0172403738,0
0.0696,-20.2908526662,0
0.0698,-21.674907353,0
0.07,-22.9837672181,0
0.0702,-23.6205733643,0
0.0704,-23.8461578294,0
0.0706,-24.0317950454,0
0.0708,-23.8085604185,0
0.071,-23.1341568615,0
0.0712,-22.8357274129,0
0.0714,-22.7605325912,0
0.0716,-22.3493109101,0
0.0718,-21.7501021747,0
0.072,-21.1132960285,0
0.0722,-20.3284500771,0
0.0724,-19.5788516983,0
0.0726,-19.0548377846,0
0.0728,-18.2699918332,0
0.073,-17.8587701521,0
0.0732,-17.9339649738,0
0.0734,-17.8211727412,0
0.0736,-17.5579908653,0
0.0738,-17.2595614167,0
0.074,-16.6603526814,0
0.0742,-16.0258963733,0
0.0744,-15.6499222649,0
0.0746,-14.977868546,0
0.0748,-13.9298407186,0
0.075,-12.9194103021,0
0.0752,-11.7585902422,0
0.0754,-10.4497303771,0
0.0756,-9.28891031726,0
0.0758,-8.13044009556,0
0.076,-6.52080094369,0
0.0762,-4.65032975408,0
0.0764,-3.00309319136,0
0.0766,-1.35585662865,0
0.0768,0.103392879828,0
0.077,1.44985015577,0
0.0772,2.90909966425,0
0.0774,4.03232231329,0
0.0776,4.55633622696,0
0.0778,5.00515531894,0
0.078,5.67720903782,0
0.0782,5.97798832459,0
0.0784,6.05318314629,0
0.0786,6.57484722178,0
0.0788,7.09886113546,0
0.079,7.36204301138,0
0.0792,8.03409673026,0
0.0794,8.67090287647,0
0.0796,9.23251420099,0
0.0798,10.0173601524,0
0.08,10.9173481746,0
0.0802,11.8149863585,0
0.0804,13.0110539911,0
0.0806,13.9838869967,0
0.0808,14.6206931429,0
0.081,15.4055390944,0
0.0812,16.2679297056,0
0.0814,16.6791513868,0
0.0816,16.6791513868,0
0.0818,16.4911643325,0
0.082,16.1551374731,0
0.0822,15.8567080245,0
0.0824,15.743915792,0
0.0826,15.5183313269,0
0.0828,14.7710827863,0
0.083,14.0966792293,0
0.0832,13.5726653156,0
0.0834,13.1238462236,0
0.0836,12.9006115967,0
0.0838,12.825416775,0
0.084,12.5246374882,0
0.0842,12.376597683,0
0.0844,12.376597683,0
0.0846,12.2638054505,0
0.0848,12.2638054505,0
0.085,12.376597683,0
0.0852,12.2638054505,0
0.0854,12.2262080396,0
0.0856,12.4141950939,0
0.0858,12.3390002722,0
0.086,11.702194126,0
0.0862,11.1029853906,0
0.0864,10.5037766552,0
0.0866,9.60613847128,0
0.0868,8.67090287647,0
0.087,7.81086210336,0
0.0872,6.80043168686,0
0.0874,5.9027935029,0
0.0876,5.04275272979,0
0.0878,4.03232231329,0
0.088,2.83390484256,0
0.0882,1.78587701521,0
0.0884,0.850641420402,0
0.0886,0.103392879828,0
0.0888,-0.234983817791,0
0.089,-0.683802909771,0
0.0892,-1.43105145034,0
0.0894,-1.87987054233,0
0.0896,-2.32868963431,0
0.0898,-2.96549578052,0
0.09,-3.60230192673,0
0.0902,-4.27435564561,0
0.0904,-5.1367462569,0
0.0906,-6.03438444086,0
0.0908,-6.78163298144,0
0.091,-7.75446598709,0
0.0912,-9.06567569036,0
0.0914,-10.2993407338,0
0.0916,-11.4601607936,0
0.0918,-12.6186310154,0
0.092,-13.4810216266,0
0.0922,-14.2658675781,0
0.0924,-15.1259083512,0
0.0926,-15.6875196757,0
0.0928,-16.2115335894,0
0.093,-16.735547503,0
0.0932,-16.998729379,0
0.0934,-17.0339769516,0
0.0936,-17.0715743625,0
0.0938,-16.8483397356,0
0.094,-16.2491310002,0
0.0942,-15.9882989625,0
0.0944,-15.9507015516,0
0.0946,-15.9131041408,0
0.0948,-15.7251170865,0
0.095,-15.612324854,0
0.0952,-15.426687638,0
0.0954,-15.2387005837,0
0.0956,-15.163505762,0
0.0958,-15.0154659568,0
0.096,-14.7898814917,0
0.0962,-14.7522840809,0
0.0964,-14.6394918484,0
0.0966,-14.3410623998,0
0.0968,-13.9674381295,0
0.097,-13.3306319833,0
0.0972,-12.2826041559,0
0.0974,-11.3473685611,0
0.0976,-10.5249251988,0
0.0978,-9.36410513896,0
0.098,-8.20328507907,0
0.0982,-6.89442521398,0
0.0984,-5.4351757055,0
0.0986,-3.90073137532,0
0.0988,-2.62946892108,0
0.099,-1.28301164514,0
0.0992,0.0281980581349,0
0.0994,1.07622588548,0
0.0996,1.93626665859,0
0.0998,2.90909966425,0
0.1,3.65634820482,0
0.1002,4.55633622696,0
0.1004,5.45397441092,0
0.1006,6.1260281298,0
0.1008,6.65004204347,0
0.101,7.39964042223,0
0.1012,7.9236543359,0
0.1014,8.55811064393,0
0.1016,9.42050125523,0
0.1018,10.3181394392,0
0.102,11.0653879798,0
0.1022,11.9653760019,0
0.1024,12.9734565802,0
0.1026,13.7606523698,0
0.1028,14.3222636943,0
0.103,14.8838750189,0
0.1032,15.4055390944,0
0.1034,15.8567080245,0
0.1036,16.3055271165,0
0.1038,16.4911643325,0
0.104,16.4535669217,0
0.1042,16.4535669217,0
0.1044,16.2679297056,0
0.1046,15.9671504189,0
0.1048,15.7063183811,0
0.105,15.3702915217,0
0.1052,14.8838750189,0
0.1054,14.5079009104,0
0.1056,14.2846662835,0
0.1058,13.8734446024,0
0.106,13.3870280995,0
0.1062,13.0110539911,0
0.1064,12.5998323099,0
0.1066,12.2638054505,0
0.1068,12.0758183963,0
0.107,11.6645967151,0
0.1072,11.2157776231,0
0.1074,10.7669585312,0
0.1076,10.2429446175,0
0.1078,9.60613847128,0
0.108,8.97168216325,0
0.1082,8.18448637365,0
0.1084,7.24925077884,0
0.1086,6.42680741657,0
0.1088,5.67720903782,0
0.109,4.62918121048,0
0.1092,3.50830839961,0
0.1094,2.23469610719,0
0.1096,1.11382329633,0
0.1098,0.0657954689814,0
0.11,-0.79659514231,0
0.1102,-1.58144109373,0
0.1104,-2.51667668854,0
0.1106,-3.22867765644,0
0.1108,-3.82553655363,0
0.111,-4.46234269984,0
0.1112,-5.1367462569,0
0.1114,-5.66076017058,0
0.1116,-6.1471766734,0
0.1118,-6.33281388946,0
0.112,-6.48320353284,0
0.1122,-6.81923039228,0
0.1124,-7.26804948426,0
0.1126,-7.68162100358,0
0.1128,-8.20328507907,0
0.113,-8.65445400923,0
0.1132,-9.02807827952,0
0.1134,-9.4768973715,0
0.1136,-9.96331387432,0
0.1138,-10.3369381446,0
0.114,-10.7105624149,0
0.1142,-11.1241339342,0
0.1144,-11.6833954206,0
0.1146,-12.1322145125,0
0.1148,-12.3577989776,0
0.115,-12.3577989776,0
0.1152,-12.2450067451,0
0.1154,-12.1322145125,0
0.1156,-11.9841747073,0
0.1158,-11.7961876531,0
0.116,-11.610550437,0
0.1162,-11.2721737394,0
0.1164,-10.8609520583,0
0.1166,-10.6001200205,0
0.1168,-10.2617433229,0
0.117,-9.77532682009,0
0.1172,-9.32650772811,0
0.1174,-9.14087051206,0
0.1176,-9.02807827952,0
0.1178,-8.95288345782,0
0.118,-8.84009122528,0
0.1182,-8.61685659838,0
0.1184,-8.3912721333,0
0.1186,-8.13044009556,0
0.1188,-7.94245304132,0
0.119,-7.64402359273,0
0.1192,-7.26804948426,0
0.1194,-6.89442521398,0
0.1196,-6.445606122,0
0.1198,-5.95918961917,0
0.12,-5.3599808838,0
0.1202,-4.46234269984,0
0.1204,-3.52710710504,0
0.1206,-2.77750872629,0
0.1208,-1.95506536402,0
0.121,-1.20781682344,0
0.1212,-0.533413266385,0
0.1214,0.213835274189,0
0.1216,0.925836242095,0
0.1218,1.60023979915,0
0.122,2.08665630198,0
0.1222,2.68351519917,0
0.1224,3.13233429115,0
0.1226,3.43311357792,0
0.1228,3.65634820482,0
0.123,3.84433525905,0
0.1232,4.1803621185,0
0.1234,4.62918121048,0
0.1236,5.08035014063,0
0.1238,5.49157182177,0
0.124,5.82759868121,0
0.1242,6.23882036234,0
0.1244,6.65004204347,0
0.1246,7.28684818969,0
0.1248,7.99884915759,0
0.125,8.52286307127,0
0.1252,9.04452714676,0
0.1254,9.68133329297,0
0.1256,10.130152385,0
0.1258,10.3933342609,0
0.126,10.5789714769,0
0.1262,10.6917637095,0
0.1264,10.804555942,0
0.1266,11.0277905689,0
0.1268,11.0653879798,0
0.127,10.9173481746,0
0.1272,10.6917637095,0
0.1274,10.2805420283,0
0.1276,9.98211257975,0
0.1278,9.71893070382,0
0.128,9.49569607692,0
0.1282,9.27011161184,0
0.1284,9.08212455761,0
0.1286,9.00927957409,0
0.1288,8.89648734155,0
0.129,8.67090287647,0
0.1292,8.41007083873,0
0.1294,8.22208378449,0
0.1296,8.03409673026,0
0.1298,7.9236543359,0
0.13,7.88605692505,0
0.1302,7.58527763828,0
0.1304,7.09886113546,0
0.1306,6.53959964911,0
0.1308,5.9027935029,0
0.131,5.22838994584,0
0.1312,4.48114140527,0
0.1314,3.69394561567,0
0.1316,2.94669707509,0
0.1318,2.19709869634,0
0.132,1.41225274492,0
0.1322,0.552211971808,0
0.1324,-0.272581228637,0
0.1326,-1.0950245909,0
0.1328,-1.80467572063,0
0.133,-2.36628704515,0
0.1332,-2.77750872629,0
0.1334,-3.1910802456,0
0.1336,-3.63989933758,0
0.1338,-3.97592619702,0
0.134,-4.3495504673,0
0.1342,-4.72552457577,0
0.1344,-5.1367462569,0
0.1346,-5.51037052719,0
0.1348,-5.84639738663,0
0.135,-6.03438444086,0
0.1352,-6.29521647861,0
0.1354,-6.70643815974,0
0.1356,-7.19285466257,0
0.1358,-7.75446598709,0
0.136,-8.24088248992,0
0.1362,-8.54166177669,0
0.1364,-8.76489640359,0
0.1366,-9.02807827952,0
0.1368,-9.21371549557,0
0.137,-9.28891031726,0
0.1372,-9.32650772811,0
0.1374,-9.36410513896,0
0.1376,-9.43929996065,0
0.1378,-9.36410513896,0
0.138,-9.17611808472,0
0.1382,-8.80249381444,0
0.1384,-8.35367472246,0
0.1386,-8.01764786302,0
0.1388,-7.79206339794,0
0.139,-7.56882877104,0
0.1392,-7.3808417168,0
0.1394,-7.08241226821,0
0.1396,-6.81923039228,0
0.1398,-6.63359317623,0
0.14,-6.33281388946,0
0.1402,-5.92159220832,0
0.1404,-5.66076017058,0
0.1406,-5.4351757055,0
0.1408,-5.24718865126,0
0.141,-5.06155143521,0
0.1412,-4.76077214844,0
0.1414,-4.3495504673,0
0.1416,-3.78793914279,0
0.1418,-3.30152263996,0
0.142,-2.77750872629,0
0.1422,-2.25584465079,0
0.1424,-1.73183073712,0
0.1426,-1.20781682344,0
0.1428,-0.683802909771,0
0.143,-0.310178639484,0
0.1432,0.213835274189,0
0.1434,0.813044009556,0
0.1436,1.29946051238,0
0.1438,1.71068219352,0
0.144,1.97386406944,0
0.1442,2.19709869634,0
0.1444,2.49787798311,0
0.1446,2.79630743171,0
0.1448,3.13233429115,0
0.145,3.39551616707,0
0.1452,3.58350322131,0
0.1454,3.80673784821,0
0.1456,4.03232231329,0
0.1458,4.21795952934,0
0.146,4.40594658357,0
0.1462,4.59393363781,0
0.1464,4.8923630864,0
0.1466,5.22838994584,0
0.1468,5.52916923261,0
0.147,5.79000127036,0
0.1472,5.9027935029,0
0.1474,5.94039091375,0
0.1476,6.05318314629,0
0.1478,6.20122295149,0
0.148,6.23882036234,0
0.1482,6.23882036234,0
0.1484,6.27641777319,0
0.1486,6.23882036234,0
0.1488,6.16362554065,0
0.149,6.01558573544,0
0.1492,5.86519609205,0
0.1494,5.67720903782,0
0.1496,5.63961162698,0
0.1498,5.60201421613,0
0.15,5.60201421613,0
0.1502,5.49157182177,0
0.1504,5.34118217838,0
0.1506,5.190792535,0
0.1508,5.04275272979,0
0.151,5.00515531894,0
0.1512,4.8923630864,0
0.1514,4.74197344302,0
0.1516,4.62918121048,0
0.1518,4.48114140527,0
0.152,4.25555694019,0
0.1522,3.8819326699,0
0.1524,3.54590581046,0
0.1526,3.09708671848,0
0.1528,2.72111261002,0
0.153,2.42268316142,0
0.1532,2.01146148029,0
0.1534,1.63783721,0
0.1536,1.22426569069,0
0.1538,0.813044009556,0
0.154,0.401822328422,0
0.1542,0.0281980581349,0
0.1544,-0.310178639484,0
0.1546,-0.571010677231,0
0.1548,-0.79659514231,0
0.155,-0.982232358365,0
0.1552,-1.20781682344,0
