Latest: Time (s),Latest: Z-Axis Acceleration (m/s²),Latest: Potential (mV)
0,-32.85113091,10.17246142
0.0002,-30.75429621,10.17246142
0.0004,-30.03013165,10.17246142
0.0006,-29.82477155,10.92597708
0.0008,-28.14081873,11.30273491
0.001,-27.82953605,11.30273491
0.0012,-30.40842657,11.30273491
0.0014,-33.4693729,10.92597708
0.0016,-36.87402718,10.92597708
0.0018,-39.28214456,10.92597708
0.002,-40.38244236,10.54921925
0.0022,-40.45161629,10.92597708
0.0024,-40.48620325,10.17246142
0.0026,-40.62238942,10.17246142
0.0028,-38.00891194,9.79570359
0.003,-34.29513666,9.41894576
0.0032,-31.13259113,9.042187929
0.0034,-27.69334988,8.665430099
0.0036,-23.18839779,8.288672268
0.0038,-17.82309498,7.935461802
0.004,-10.94461248,7.558703972
0.0042,-2.142230094,6.805188311
0.0044,5.285320463,6.805188311
0.0046,11.85468197,6.051672651
0.0048,19.59135352,5.67491482
0.005,27.12266497,5.29815699
0.0052,32.55498003,4.921399159
0.0054,36.33792924,4.544641329
0.0056,38.88439447,4.167883499
0.0058,39.22810243,3.814673033
0.006,38.71145965,3.814673033
0.0062,39.12434154,3.061157372
0.0064,39.57181039,2.684399541
0.0066,39.84634442,2.684399541
0.0068,40.53376033,2.307641711
0.007,41.63405813,2.307641711
0.0072,43.69846755,2.307641711
0.0074,46.31194503,1.55412605
0.0076,46.82642612,1.55412605
0.0078,45.2462342,1.55412605
0.008,45.93365011,1.17736822
0.0082,48.85624858,1.17736822
0.0084,51.19519203,1.17736822
0.0086,51.60807392,0.80061039
0.0088,52.91373182,0.80061039
0.009,54.59984632,0.80061039
0.0092,55.90550422,0.80061039
0.0094,56.90204112,0.80061039
0.0096,56.35297307,0.80061039
0.0098,54.73603249,0.80061039
0.01,51.77884706,0.80061039
0.0102,47.58301596,0.80061039
0.0104,43.01105164,0.80061039
0.0106,38.3677517,0.80061039
0.0108,32.17668511,0.80061039
0.011,23.0997687,0.80061039
0.0112,16.25587316,0.80061039
0.0114,11.44180009,0.80061039
0.0116,8.071732764,0.80061039
0.0118,7.451329094,0.80061039
0.012,11.13267909,1.17736822
0.0122,19.90047451,1.17736822
0.0124,27.74090695,1.17736822
0.0126,34.10274668,1.17736822
0.0128,39.22810243,1.17736822
0.013,43.42177184,1.930883881
0.0132,46.82642612,1.930883881
0.0134,49.61283842,1.930883881
0.0136,51.77884706,1.930883881
0.0138,53.70490862,2.307641711
0.014,55.18350134,2.307641711
0.0142,54.94355428,2.684399541
0.0144,52.77538396,2.684399541
0.0146,49.06160868,3.061157372
0.0148,43.28558567,3.437915202
0.015,34.92851045,3.437915202
0.0152,24.26924042,3.437915202
0.0154,12.54209788,3.814673033
0.0156,1.297011157,4.167883499
0.0158,-10.08642343,4.167883499
0.016,-20.43657246,4.167883499
0.0162,-27.52041506,4.167883499
0.0164,-31.19960337,4.167883499
0.0166,-32.33448813,4.544641329
0.0168,-32.50742295,4.921399159
0.017,-30.99424327,4.167883499
0.0172,-27.76252381,4.921399159
0.0174,-23.9795746,4.921399159
0.0176,-19.57622172,4.544641329
0.0178,-15.14044357,4.921399159
0.018,-9.742715471,4.921399159
0.0182,-4.239064797,4.544641329
0.0184,0.196713359,4.544641329
0.0186,3.979662565,4.544641329
0.0188,7.384316851,4.544641329
0.019,9.377390662,4.167883499
0.0192,7.485916059,4.167883499
0.0194,2.879364768,4.167883499
0.0196,-1.28187936,4.167883499
0.0198,-5.203176423,3.814673033
0.02,-9.708128507,3.814673033
0.0202,-15.72626027,3.437915202
0.0204,-22.67175502,3.437915202
0.0206,-27.31505496,2.684399541
0.0208,-29.9631194,2.684399541
0.021,-32.47283599,2.307641711
0.0212,-34.77719248,2.307641711
0.0214,-35.60295625,2.307641711
0.0216,-35.70455546,1.930883881
0.0218,-35.77372938,1.17736822
0.022,-35.12090043,1.17736822
0.0222,-34.70801855,1.17736822
0.0224,-35.32626053,0.80061039
0.0226,-35.46460839,0.80061039
0.0228,-35.39543446,0.80061039
0.023,-35.32626053,0.047094729
0.0232,-35.25924829,0.047094729
0.0234,-34.91337865,0.047094729
0.0236,-34.94796561,0.047094729
0.0238,-34.32972363,0.047094729
0.024,-33.1602519,-0.306115737
0.0242,-31.57789829,-0.306115737
0.0244,-29.72101065,-0.306115737
0.0246,-27.93329694,-0.306115737
0.0248,-26.79841218,-0.306115737
0.025,-26.52387815,-0.306115737
0.0252,-26.76382522,-0.306115737
0.0254,-26.59305208,-0.306115737
0.0256,-26.0764093,0.047094729
0.0258,-25.93806145,-0.306115737
0.026,-25.38899339,-0.306115737
0.0262,-23.91040067,0.047094729
0.0264,-22.56799412,-0.306115737
0.0266,-21.50228329,-0.306115737
0.0268,-20.71110649,-0.306115737
0.027,-20.84945434,-0.306115737
0.0272,-20.88404131,-0.306115737
0.0274,-20.19662539,-0.306115737
0.0276,-19.47462252,-0.306115737
0.0278,-18.75261964,-0.306115737
0.028,-17.65232184,-0.306115737
0.0282,-16.96274424,-0.306115737
0.0284,-16.79197111,-0.306115737
0.0286,-16.58444932,-0.306115737
0.0288,-16.79197111,-0.306115737
0.029,-17.27402692,-0.306115737
0.0292,-17.47938702,-0.306115737
0.0294,-17.37562613,-0.306115737
0.0296,-16.96274424,-0.306115737
0.0298,-16.27532833,0.047094729
0.03,-16.0007943,-0.306115737
0.0302,-15.76084724,-0.306115737
0.0304,-15.31337839,-0.306115737
0.0306,-14.59137551,-0.306115737
0.0308,-13.31814289,-0.306115737
0.031,-11.66877704,-0.306115737
0.0312,-10.08642343,-0.306115737
0.0314,-8.434895888,-0.306115737
0.0316,-7.163824955,-0.306115737
0.0318,-6.439660392,-0.306115737
0.032,-5.581471344,-0.306115737
0.0322,-4.928642395,-0.306115737
0.0324,-4.686533646,-0.306115737
0.0326,-3.89535684,-0.306115737
0.0328,-2.658872871,-0.306115737
0.033,-1.867696065,-0.306115737
0.0332,-1.180280152,0.047094729
0.0334,-0.559876483,-0.306115737
0.0336,-0.559876483,-0.306115737
0.0338,-0.801985232,-0.306115737
0.034,-0.834410511,-0.306115737
0.0342,-0.629050411,-0.306115737
0.0344,-0.04539539,-0.306115737
0.0346,0.814955343,-0.306115737
0.0348,1.467784292,-0.306115737
0.035,1.915253141,-0.306115737
0.0352,2.258961098,-0.306115737
0.0354,2.706429947,-0.306115737
0.0356,3.223072724,-0.306115737
0.0358,3.945075601,-0.306115737
0.036,4.941612507,-0.306115737
0.0362,6.351031297,-0.306115737
0.0364,7.693437844,-0.306115737
0.0366,9.172030562,-0.306115737
0.0368,10.41067622,0.047094729
0.037,10.99433124,-0.306115737
0.0372,11.2342783,-0.306115737
0.0374,11.71633411,-0.306115737
0.0376,12.36916306,-0.306115737
0.0378,13.36786165,-0.306115737
0.038,14.56975866,-0.306115737
0.0382,15.19016233,-0.306115737
0.0384,15.36093546,-0.306115737
0.0386,15.56845725,-0.306115737
0.0388,15.39552243,0.047094729
0.039,14.98264054,-0.306115737
0.0392,14.50274642,0.047094729
0.0394,14.15903846,0.047094729
0.0396,14.2260507,-0.306115737
0.0398,14.84645437,-0.306115737
0.04,15.80840431,0.047094729
0.0402,16.4266463,-0.306115737
0.0404,16.63416808,-0.306115737
0.0406,16.73792898,0.047094729
0.0408,16.94328908,0.047094729
0.041,17.35617096,0.047094729
0.0412,17.59611802,0.047094729
0.0414,17.83822677,-0.306115737
0.0416,17.9074007,-0.306115737
0.0418,17.93982598,-0.306115737
0.042,18.21652169,-0.306115737
0.0422,18.52564269,-0.306115737
0.0424,18.28569562,-0.306115737
0.0426,17.87281374,0.047094729
0.0428,17.56153106,0.047094729
0.043,17.76905285,-0.306115737
0.0432,18.42188179,-0.306115737
0.0434,18.86935064,0.047094729
0.0436,18.45646876,-0.306115737
0.0438,17.69987892,-0.306115737
0.044,17.04704997,0.047094729
0.0442,16.25587316,-0.306115737
0.0444,15.60304421,-0.306115737
0.0446,14.94805358,0.047094729
0.0448,14.1244515,-0.306115737
0.045,13.57322175,-0.306115737
0.0452,13.46946086,-0.306115737
0.0454,13.4348739,-0.306115737
0.0456,12.95497977,-0.306115737
0.0458,11.95628118,-0.306115737
0.046,10.78897114,-0.306115737
0.0462,10.06480658,-0.306115737
0.0464,9.859446475,-0.306115737
0.0466,9.755685583,-0.306115737
0.0468,9.44656459,-0.306115737
0.047,8.724561713,-0.306115737
0.0472,8.175493657,-0.306115737
0.0474,7.933384908,-0.306115737
0.0476,7.485916059,-0.306115737
0.0478,6.83308711,-0.306115737
0.048,6.145671197,-0.306115737
0.0482,5.458255284,0.047094729
0.0484,4.941612507,-0.306115737
0.0486,5.010786435,-0.306115737
0.0488,4.736252407,-0.306115737
0.049,3.945075601,-0.306115737
0.0492,2.980963975,-0.306115737
0.0494,1.98442707,-0.306115737
0.0496,1.435359013,0.047094729
0.0498,1.331598121,-0.306115737
0.05,0.711194451,-0.306115737
0.0502,-0.112407634,-0.306115737
0.0504,-0.868997475,-0.306115737
0.0506,-1.625587316,-0.306115737
0.0508,-2.520525014,-0.306115737
0.051,-3.482474955,-0.306115737
0.0512,-4.859468467,-0.306115737
0.0514,-6.095952436,-0.306115737
0.0516,-6.785530034,-0.306115737
0.0518,-6.95630317,-0.306115737
0.052,-6.817955313,-0.306115737
0.0522,-7.060064062,-0.306115737
0.0524,-8.056600968,-0.306115737
0.0526,-8.916951701,-0.306115737
0.0528,-9.638954579,-0.306115737
0.053,-10.46471835,0.047094729
0.0532,-10.9121872,-0.306115737
0.0534,-11.46125525,-0.306115737
0.0536,-12.04707196,0.047094729
0.0538,-12.012485,-0.306115737
0.054,-12.012485,-0.306115737
0.0542,-12.21784509,-0.306115737
0.0544,-12.49237912,-0.306115737
0.0546,-13.04360886,-0.306115737
0.0548,-13.59267692,-0.306115737
0.055,-13.59267692,-0.306115737
0.0552,-13.42190379,-0.306115737
0.0554,-13.38731682,-0.306115737
0.0556,-13.42190379,-0.306115737
0.0558,-13.80019871,-0.306115737
0.056,-14.3146798,-0.306115737
0.0562,-14.45302765,-0.306115737
0.0564,-14.76214865,-0.306115737
0.0566,-14.93508347,-0.306115737
0.0568,-14.9004965,-0.306115737
0.057,-14.86590954,-0.306115737
0.0572,-14.62596248,0.047094729
0.0574,-14.38385373,-0.306115737
0.0576,-14.59137551,-0.306115737
0.0578,-14.86590954,0.047094729
0.058,-15.24420446,-0.306115737
0.0582,-15.69167331,-0.306115737
0.0584,-15.58791242,-0.306115737
0.0586,-15.07126964,-0.306115737
0.0588,-14.66054944,-0.306115737
0.059,-14.21308059,-0.306115737
0.0592,-13.73102478,-0.306115737
0.0594,-13.55808996,-0.306115737
0.0596,-13.42190379,-0.306115737
0.0598,-13.28355593,-0.306115737
0.06,-13.14736976,-0.306115737
0.0602,-12.80150012,-0.306115737
0.0604,-12.35619295,-0.306115737
0.0606,-11.73578928,-0.306115737
0.0608,-10.9121872,-0.306115737
0.061,-10.29178353,-0.306115737
0.0612,-10.0172495,-0.306115737
0.0614,-9.913488607,-0.306115737
0.0616,-9.742715471,-0.306115737
0.0618,-9.431432794,-0.306115737
0.062,-8.813190809,-0.306115737
0.0622,-8.16036186,-0.306115737
0.0624,-7.609132119,-0.306115737
0.0626,-7.163824955,-0.306115737
0.0628,-6.817955313,-0.306115737
0.063,-6.474247357,-0.306115737
0.0632,-6.095952436,-0.306115737
0.0634,-5.786831444,-0.306115737
0.0636,-5.54688438,-0.306115737
0.0638,-5.030241602,-0.306115737
0.064,-4.308238725,-0.306115737
0.0642,-3.415462712,-0.306115737
0.0644,-2.725885114,-0.306115737
0.0646,-2.382177158,-0.306115737
0.0648,-2.313003229,0.047094729
0.065,-1.867696065,-0.306115737
0.0652,-1.145693188,-0.306115737
0.0654,-0.285342454,0.047094729
0.0656,0.644182208,-0.306115737
0.0658,1.467784292,-0.306115737
0.066,2.15736189,0.047094729
0.0662,2.879364768,-0.306115737
0.0664,3.532193716,-0.306115737
0.0666,3.979662565,-0.306115737
0.0668,4.254196594,-0.306115737
0.067,4.563317586,-0.306115737
0.0672,5.114547327,-0.306115737
0.0674,6.145671197,-0.306115737
0.0676,7.006021931,-0.306115737
0.0678,7.451329094,-0.306115737
0.068,7.693437844,-0.306115737
0.0682,7.797198736,-0.306115737
0.0684,8.002558836,-0.306115737
0.0686,8.415440721,-0.306115737
0.0688,8.793735642,-0.306115737
0.069,9.102856634,0.047094729
0.0692,9.411977626,-0.306115737
0.0694,9.790272547,-0.306115737
0.0696,10.20315443,-0.306115737
0.0698,10.61603632,-0.306115737
0.07,10.51227542,-0.306115737
0.0702,10.2377414,-0.306115737
0.0704,10.41067622,-0.306115737
0.0706,10.82139642,-0.306115737
0.0708,11.47638705,-0.306115737
0.071,12.06004207,-0.306115737
0.0712,12.29998913,-0.306115737
0.0714,12.3345761,0.047094729
0.0716,12.43833699,0.047094729
0.0718,12.64585878,-0.306115737
0.072,12.81663191,-0.306115737
0.0722,12.88580584,-0.306115737
0.0724,12.88580584,-0.306115737
0.0726,13.1257529,-0.306115737
0.0728,13.53863479,-0.306115737
0.073,14.05527757,-0.306115737
0.0732,14.2260507,-0.306115737
0.0734,13.98610364,-0.306115737
0.0736,13.4348739,-0.306115737
0.0738,13.26410076,0.047094729
0.074,13.33327469,-0.306115737
0.0742,13.26410076,-0.306115737
0.0744,13.0241537,0.047094729
0.0746,12.57668485,-0.306115737
0.0748,12.02545511,-0.306115737
0.075,11.64716019,0.047094729
0.0752,11.2342783,-0.306115737
0.0754,10.61603632,-0.306115737
0.0756,9.997794332,-0.306115737
0.0758,9.377390662,-0.306115737
0.076,9.033682705,-0.306115737
0.0762,9.137443598,-0.306115737
0.0764,8.999095741,-0.306115737
0.0766,8.346266793,-0.306115737
0.0768,7.65885088,-0.306115737
0.077,7.073034174,-0.306115737
0.0772,6.694739253,-0.306115737
0.0774,6.558553082,-0.306115737
0.0776,6.249432089,-0.306115737
0.0778,5.938149412,-0.306115737
0.078,5.698202348,-0.306115737
0.0782,5.389081356,-0.306115737
0.0784,5.045373399,-0.306115737
0.0786,4.770839371,-0.306115737
0.0788,4.115848737,-0.306115737
0.079,3.463019788,-0.306115737
0.0792,3.223072724,-0.306115737
0.0794,3.084724867,-0.306115737
0.0796,3.084724867,0.047094729
0.0798,2.946377011,-0.306115737
0.08,2.36272199,-0.306115737
0.0802,1.744480006,-0.306115737
0.0804,1.297011157,-0.306115737
0.0806,0.644182208,-0.306115737
0.0808,0.231300323,-0.306115737
0.081,-0.319929419,-0.306115737
0.0812,-0.972758367,-0.306115737
0.0814,-1.420227216,-0.306115737
0.0816,-1.729348209,-0.306115737
0.0818,-2.313003229,-0.306115737
0.082,-2.967993863,-0.306115737
0.0822,-3.860769876,-0.306115737
0.0824,-4.651946682,-0.306115737
0.0826,-5.064828566,-0.306115737
0.0828,-5.203176423,-0.306115737
0.083,-5.408536523,-0.306115737
0.0832,-5.683070551,-0.306115737
0.0834,-6.165126364,-0.306115737
0.0836,-6.612595213,-0.306115737
0.0838,-6.990890134,0.047094729
0.084,-7.403772019,-0.306115737
0.0842,-7.816653904,-0.306115737
0.0844,-8.16036186,-0.306115737
0.0846,-8.36572196,0.047094729
0.0848,-8.469482852,-0.306115737
0.085,-8.434895888,-0.306115737
0.0852,-8.573243745,-0.306115737
0.0854,-8.98612563,-0.306115737
0.0856,-9.431432794,0.047094729
0.0858,-9.809727714,-0.306115737
0.086,-10.0172495,-0.306115737
0.0862,-9.982662535,0.047094729
0.0864,-10.0172495,-0.306115737
0.0866,-10.0172495,-0.306115737
0.0868,-10.15559736,-0.306115737
0.087,-10.36095746,-0.306115737
0.0872,-10.49930531,-0.306115737
0.0874,-10.63549148,-0.306115737
0.0876,-10.84301327,-0.306115737
0.0878,-11.1175473,-0.306115737
0.088,-11.22130819,0.047094729
0.0882,-11.22130819,-0.306115737
0.0884,-11.1175473,-0.306115737
0.0886,-11.08296033,0.047094729
0.0888,-11.18672123,-0.306115737
0.089,-11.3229074,-0.306115737
0.0892,-11.42666829,-0.306115737
0.0894,-11.25589515,0.047094729
0.0896,-10.9121872,-0.306115737
0.0898,-10.56631756,-0.306115737
0.09,-10.36095746,-0.306115737
0.0902,-10.12101039,-0.306115737
0.0904,-9.948075571,-0.306115737
0.0906,-9.708128507,-0.306115737
0.0908,-9.535193686,-0.306115737
0.091,-9.295246622,-0.306115737
0.0912,-9.122311801,-0.306115737
0.0914,-8.813190809,-0.306115737
0.0916,-8.264122753,-0.306115737
0.0918,-7.609132119,-0.306115737
0.092,-7.163824955,-0.306115737
0.0922,-6.95630317,-0.306115737
0.0924,-6.817955313,-0.306115737
0.0926,-6.647182177,-0.306115737
0.0928,-6.268887257,0.047094729
0.093,-5.821418408,-0.306115737
0.0932,-5.306937316,-0.306115737
0.0934,-4.995654638,-0.306115737
0.0936,-4.651946682,-0.306115737
0.0938,-4.172052554,-0.306115737
0.094,-3.551648884,-0.306115737
0.0942,-3.277114856,-0.306115737
0.0944,-3.104180035,-0.306115737
0.0946,-2.933406899,-0.306115737
0.0948,-2.555111978,0.047094729
0.095,-1.969295273,-0.306115737
0.0952,-1.420227216,-0.306115737
0.0954,-1.07651926,-0.306115737
0.0956,-0.834410511,-0.306115737
0.0958,-0.629050411,-0.306115737
0.096,-0.319929419,-0.306115737
0.0962,0.231300323,-0.306115737
0.0964,0.711194451,-0.306115737
0.0966,1.089489372,-0.306115737
0.0968,1.502371256,0.047094729
0.097,2.019014034,-0.306115737
0.0972,2.671842983,-0.306115737
0.0974,3.223072724,-0.306115737
0.0976,3.497606752,-0.306115737
0.0978,3.670541573,-0.306115737
0.098,3.979662565,-0.306115737
0.0982,4.459556693,-0.306115737
0.0984,5.079960363,-0.306115737
0.0986,5.698202348,-0.306115737
0.0988,6.00732334,0.047094729
0.099,6.214845125,-0.306115737
0.0992,6.489379153,-0.306115737
0.0994,6.83308711,-0.306115737
0.0996,7.176795066,0.047094729
0.0998,7.384316851,-0.306115737
0.1,7.520503023,-0.306115737
0.1002,7.797198736,0.047094729
0.1004,8.2425059,-0.306115737
0.1006,8.655387785,-0.306115737
0.1008,8.86290957,-0.306115737
0.101,8.828322606,-0.306115737
0.1012,8.724561713,-0.306115737
0.1014,8.86290957,-0.306115737
0.1016,9.033682705,-0.306115737
0.1018,9.241204491,-0.306115737
0.102,9.377390662,-0.306115737
0.1022,9.342803698,-0.306115737
0.1024,9.308216734,0.047094729
0.1026,9.411977626,-0.306115737
0.1028,9.515738519,-0.306115737
0.103,9.44656459,0.047094729
0.1032,9.308216734,-0.306115737
0.1034,9.206617526,-0.306115737
0.1036,9.308216734,-0.306115737
0.1038,9.515738519,-0.306115737
0.104,9.515738519,-0.306115737
0.1042,9.342803698,-0.306115737
0.1044,9.06826967,-0.306115737
0.1046,8.759148677,-0.306115737
0.1048,8.586213856,-0.306115737
0.105,8.586213856,-0.306115737
0.1052,8.484614649,-0.306115737
0.1054,8.2425059,-0.306115737
0.1056,8.071732764,-0.306115737
0.1058,7.898797943,0.047094729
0.106,7.797198736,-0.306115737
0.1062,7.589676951,-0.306115737
0.1064,7.107621138,0.047094729
0.1066,6.694739253,-0.306115737
0.1068,6.385618261,-0.306115737
0.107,6.214845125,0.047094729
0.1072,6.145671197,-0.306115737
0.1074,5.972736376,-0.306115737
0.1076,5.559854491,0.047094729
0.1078,5.079960363,0.047094729
0.108,4.837851614,-0.306115737
0.1082,4.494143658,-0.306115737
0.1084,4.219609629,-0.306115737
0.1086,3.945075601,-0.306115737
0.1088,3.497606752,-0.306115737
0.109,3.153898796,-0.306115737
0.1092,2.879364768,-0.306115737
0.1094,2.535656811,-0.306115737
0.1096,2.189787169,-0.306115737
0.1098,1.640719113,-0.306115737
0.11,1.124076336,-0.306115737
0.1102,0.884129272,-0.306115737
0.1104,0.575008279,-0.306115737
0.1106,0.33289953,-0.306115737
0.1108,0.058365502,-0.306115737
0.111,-0.319929419,-0.306115737
0.1112,-0.767398268,0.047094729
0.1114,-1.145693188,-0.306115737
0.1116,-1.489401145,-0.306115737
0.1118,-1.867696065,0.047094729
0.112,-2.211404022,-0.306115737
0.1122,-2.624285907,-0.306115737
0.1124,-2.933406899,0.047094729
0.1126,-3.069593071,-0.306115737
0.1128,-3.380875748,-0.306115737
0.113,-3.929943804,-0.306115737
0.1132,-4.342825689,-0.306115737
0.1134,-4.790294538,-0.306115737
0.1136,-5.099415531,-0.306115737
0.1138,-5.237763387,-0.306115737
0.114,-5.373949559,-0.306115737
0.1142,-5.581471344,-0.306115737
0.1144,-5.856005372,-0.306115737
0.1146,-6.095952436,-0.306115737
0.1148,-6.303474221,-0.306115737
0.115,-6.439660392,-0.306115737
0.1152,-6.647182177,-0.306115737
0.1154,-6.785530034,0.047094729
0.1156,-6.852542277,-0.306115737
0.1158,-6.887129241,-0.306115737
0.116,-6.852542277,0.047094729
0.1162,-6.817955313,-0.306115737
0.1164,-6.95630317,-0.306115737
0.1166,-7.163824955,0.047094729
0.1168,-7.230837198,0.047094729
0.117,-7.230837198,-0.306115737
0.1172,-7.163824955,-0.306115737
0.1174,-7.025477098,-0.306115737
0.1176,-6.990890134,-0.306115737
0.1178,-7.060064062,-0.306115737
0.118,-7.025477098,-0.306115737
0.1182,-6.95630317,-0.306115737
0.1184,-6.921716206,-0.306115737
0.1186,-6.887129241,0.047094729
0.1188,-6.95630317,-0.306115737
0.119,-6.921716206,-0.306115737
0.1192,-6.716356106,-0.306115737
0.1194,-6.543421285,-0.306115737
0.1196,-6.407235113,-0.306115737
0.1198,-6.372648149,-0.306115737
0.12,-6.439660392,-0.306115737
0.1202,-6.338061185,-0.306115737
0.1204,-6.028940193,-0.306115737
0.1206,-5.717657515,-0.306115737
0.1208,-5.54688438,0.047094729
0.121,-5.339362595,-0.306115737
0.1212,-5.168589459,-0.306115737
