"Latest: Time (s)","Latest: Z-Axis Acceleration (m/s²)","Latest: Potential (mV)"
0,-53.8089444359,10.4785771575
0.0002,-49.5792357156,11.2320928182
0.0004,-47.1847506124,11.6088506486
0.0006,-41.909363903,11.6088506486
0.0008,-35.3227674903,11.985608479
0.001,-32.030644203,12.3623663094
0.0012,-28.9993529535,12.7391241398
0.0014,-26.9032972988,13.1158819702
0.0016,-27.3168688182,13.1158819702
0.0018,-27.6152982668,13.1158819702
0.002,-28.886560721,13.1158819702
0.0022,-33.0034772087,13.1158819702
0.0024,-36.7444195879,13.1158819702
0.0026,-38.9532674752,12.7391241398
0.0028,-43.1806263572,12.3623663094
0.003,-47.5583748826,12.3623663094
0.0032,-49.8800150024,11.985608479
0.0034,-51.8256810137,11.6088506486
0.0036,-53.3225279331,11.2320928182
0.0038,-51.4497069053,10.4785771575
0.004,-48.2703758506,10.1018193271
0.0042,-45.0158499742,9.37185103074
0.0044,-38.6548380266,8.99509320036
0.0046,-30.4210050512,8.61833536997
0.0048,-21.8534950545,8.24157753959
0.005,-12.125164998,7.48806187883
0.0052,-1.42165209763,7.11130404845
0.0054,8.5299125858,6.35778838769
0.0056,16.9493827772,5.60427272692
0.0058,23.947200871,5.60427272692
0.006,29.8593937267,4.87430443056
0.0062,34.7987535766,4.49754660018
0.0064,38.9885150478,4.1207887698
0.0066,42.6942098544,3.74403093942
0.0068,45.7255011039,2.99051527865
0.007,48.3056234232,2.99051527865
0.0072,50.5144713105,2.61375744827
0.0074,52.3473450892,2.23699961789
0.0076,53.9193868302,1.86024178751
0.0078,55.303441517,1.86024178751
0.008,56.4642615769,1.48348395713
0.0082,57.4370945826,1.10672612675
0.0084,58.2971353557,1.10672612675
0.0086,59.0091363236,1.10672612675
0.0088,59.5707476481,1.10672612675
0.009,60.1676065453,0.729968296364
0.0092,60.5788282264,0.729968296364
0.0094,60.9923997457,0.729968296364
0.0096,61.3284266052,0.729968296364
0.0098,61.5892586429,0.729968296364
0.01,61.8524405189,1.10672612675
0.0102,62.0404275731,1.10672612675
0.0104,62.2260647891,1.10672612675
0.0106,62.3388570217,1.10672612675
0.0108,62.4892466651,1.10672612675
0.011,62.5996890594,1.48348395713
0.0112,62.6748838811,1.48348395713
0.0114,62.7500787028,1.86024178751
0.0116,62.8252735245,1.86024178751
0.0118,62.9004683462,2.23699961789
0.012,62.938065757,2.23699961789
0.0122,63.0132605787,2.61375744827
0.0124,61.2908291943,2.99051527865
0.0126,57.4746919934,2.99051527865
0.0128,52.3849425001,3.36727310903
0.013,46.7735289312,3.74403093942
0.0132,41.420597562,4.1207887698
0.0134,35.2099752577,4.49754660018
0.0136,29.2225875804,4.49754660018
0.0138,23.8344086385,5.22751489654
0.014,19.719841989,5.22751489654
0.0142,15.4149384471,5.22751489654
0.0144,11.7491908895,5.60427272692
0.0146,9.05392649947,5.60427272692
0.0148,7.03306566647,5.9810305573
0.015,5.35058153109,5.9810305573
0.0152,3.85373461177,5.9810305573
0.0154,2.61771973019,5.9810305573
0.0156,1.0104304165,5.9810305573
0.0158,-0.599208735366,5.9810305573
0.016,-3.18168089289,6.35778838769
0.0162,-6.43620676929,6.35778838769
0.0164,-10.2899413811,6.35778838769
0.0166,-14.6300924956,5.9810305573
0.0168,-19.9454264541,6.35778838769
0.017,-26.1184513474,5.9810305573
0.0172,-32.3290736516,5.60427272692
0.0174,-38.7276830101,5.60427272692
0.0176,-45.3894742444,5.60427272692
0.0178,-51.1512774567,5.22751489654
0.018,-56.0530398958,4.87430443056
0.0182,-60.2451512052,4.49754660018
0.0184,-63.7605091193,4.1207887698
0.0186,-66.7918003688,3.74403093942
0.0188,-69.3366751155,3.36727310903
0.019,-71.5455230027,2.99051527865
0.0192,-73.3407993706,2.61375744827
0.0194,-74.6872566466,2.23699961789
0.0196,-74.9128411117,1.86024178751
0.0198,-73.9776055168,1.48348395713
0.02,-72.0319395055,1.10672612675
0.0202,-69.89828644,0.353210465983
0.0204,-67.0925796556,0
0.0206,-63.7981065302,0
0.0208,-61.0675945674,0
0.021,-58.4851224099,0
0.0212,-56.8026382745,0
0.0214,-55.7546104472,0
0.0216,-56.0906373066,0
0.0218,-57.5122894043,0
0.022,-59.6459424698,0
0.0222,-62.938065757,0
0.0224,-66.1197466499,0
0.0226,-68.4390369315,0
0.0228,-70.8335220348,0
0.023,-71.6183679862,0
0.0232,-71.1319514834,0
0.0234,-70.2719107103,0
0.0236,-67.6165935693,0
0.0238,-62.938065757,0
0.024,-58.8587466802,0
0.0242,-54.5561929765,0
0.0244,-49.055221802,0
0.0246,-43.1806263572,0
0.0248,-37.418823145,0
0.025,-31.0578111974,0
0.0252,-25.0704235201,0
0.0254,-19.6822445781,0
0.0256,-15.0812614258,0
0.0258,-11.5635536735,0
0.026,-9.76592746738,0
0.0262,-8.53226242398,0
0.0264,-7.97065109946,0
0.0266,-8.86828928342,0
0.0268,-10.1771491485,0
0.027,-10.7763578839,0
0.0272,-11.5259562626,0
0.0274,-13.208440398,0
0.0276,-14.9684691933,0
0.0278,-15.8285099664,0
0.028,-16.801342972,0
0.0282,-16.7637455612,0
0.0284,-15.4172882852,0
0.0286,-13.5092196848,0
0.0288,-10.6283180787,0
0.029,-6.13777732069,0
0.0292,-1.38405468679,0
0.0294,3.59055273584,0
0.0296,9.05392649947,0
0.0298,14.2940656362,0
0.03,19.0830358428,0
0.0302,24.0223956927,0
0.0304,29.0369503644,0
0.0306,33.1515170139,0
0.0308,36.4083927285,0
0.031,39.1013072804,0
0.0312,40.6733490214,0
0.0314,41.0093758808,0
0.0316,40.97177847,0
0.0318,40.1493351077,0
0.032,38.3916561506,0
0.0322,36.3331979068,0
0.0324,33.6003361059,0
0.0326,32.2162814191,0
0.0328,30.1578231753,0
0.033,28.9617555427,0
0.0332,28.8113658993,0
0.0334,26.6048678503,0
0.0336,27.9513251262,0
0.0338,30.1578231753,0
0.034,31.8802545597,0
0.0342,32.928282387,0
0.0344,35.9971710473,0
0.0346,39.2516969237,0
0.0348,42.2077933516,0
0.035,45.2014871902,0
0.0352,47.2975428449,0
0.0354,49.6544305373,0
0.0356,51.4121094944,0
0.0358,52.3473450892,0
0.036,51.8985259972,0
0.0362,51.7128887812,0
0.0364,50.5520687213,0
0.0366,47.5959722935,0
0.0368,44.6022784548,0
0.037,41.8341690813,0
0.0372,38.7276830101,0
0.0374,34.5355717007,0
0.0376,30.7946293215,0
0.0378,27.0536869422,0
0.038,23.5735766008,0
0.0382,20.5422853513,0
0.0384,17.698981156,0
0.0386,15.0413141768,0
0.0388,13.4316750249,0
0.039,12.8724135386,0
0.0392,12.1980099815,0
0.0394,11.9371779438,0
0.0396,12.2732048032,0
0.0398,12.4964394301,0
0.04,12.3108022141,0
0.0402,12.4964394301,0
0.0404,12.6468290735,0
0.0406,12.1604125707,0
0.0408,11.5988012461,0
0.041,10.3651362027,0
0.0412,8.64270481834,0
0.0414,6.39860935844,0
0.0416,3.96652684431,0
0.0418,0.524013913673,0
0.042,-3.51770775233,0
0.0422,-7.14820773719,0
0.0424,-10.6635656513,0
0.0426,-14.6300924956,0
0.0428,-18.6342167508,0
0.043,-22.1519245031,0
0.0432,-25.333605396,0
0.0434,-28.252104413,0
0.0436,-30.1225756026,0
0.0438,-31.7322147544,0
0.044,-32.9658797978,0
0.0442,-33.5274911224,0
0.0444,-33.7507257493,0
0.0446,-33.7154781766,0
0.0448,-32.928282387,0
0.045,-32.0682416139,0
0.0452,-31.7322147544,0
0.0454,-30.6841869271,0
0.0456,-29.4105746347,0
0.0458,-28.7761183266,0
0.046,-28.3272992347,0
0.0462,-27.9137277153,0
0.0464,-28.252104413,0
0.0466,-29.2249374186,0
0.0468,-30.1601730134,0
0.047,-30.9450189648,0
0.0472,-32.1058390247,0
0.0474,-33.4146988898,0
0.0476,-34.7611561658,0
0.0478,-35.8091839931,0
0.048,-36.7820169988,0
0.0482,-37.4940179667,0
0.0484,-38.3540587398,0
0.0486,-39.1036571185,0
0.0488,-38.8028778318,0
0.049,-37.9428370587,0
0.0492,-37.0827962855,0
0.0494,-35.3603649011,0
0.0496,-33.1162694412,0
0.0498,-31.1706034299,0
0.05,-29.2625348295,0
0.0502,-26.6424652611,0
0.0504,-24.1351879253,0
0.0506,-22.0391322706,0
0.0508,-19.7574393998,0
0.051,-17.5133439399,0
0.0512,-15.3796908744,0
0.0514,-13.4716222739,0
0.0516,-12.0875675872,0
0.0518,-11.1147345815,0
0.052,-10.4027336136,0
0.0522,-9.87871969992,0
0.0524,-9.54269284048,0
0.0526,-9.16906857019,0
0.0528,-8.71789964003,0
0.053,-8.41947019144,0
0.0532,-8.34427536975,0
0.0534,-7.70981906171,0
0.0536,-6.66179123436,0
0.0538,-5.72655563956,0
0.054,-4.90176243911,0
0.0542,-3.21927830373,0
0.0544,-1.31120970327,0
0.0546,0.860040773114,0
0.0548,3.48011034148,0
0.055,6.09783007167,0
0.0552,8.34427536975,0
0.0554,10.9619950999,0
0.0556,13.5444672575,0
0.0558,15.8285099664,0
0.056,18.333437464,0
0.0562,20.5422853513,0
0.0564,22.1143270923,0
0.0566,23.4607843682,0
0.0568,24.6216044281,0
0.057,25.4064503795,0
0.0572,25.2560607361,0
0.0574,25.3312555578,0
0.0576,25.0328261092,0
0.0578,25.1080209309,0
0.058,25.2184633253,0
0.0582,24.396019963,0
0.0584,24.3584225522,0
0.0586,24.2832277305,0
0.0588,24.1727853361,0
0.059,23.8720060494,0
0.0592,24.1727853361,0
0.0594,24.8072416442,0
0.0596,25.4440477904,0
0.0598,25.968061704,0
0.06,26.865699888,0
0.0602,28.2497545748,0
0.0604,29.1473927588,0
0.0606,29.7466014941,0
0.0608,30.3082128186,0
0.061,30.9826163757,0
0.0612,31.4314354677,0
0.0614,31.9178519705,0
0.0616,31.9554493813,0
0.0618,31.5066302894,0
0.062,30.8322267323,0
0.0622,30.00978337,0
0.0624,28.9617555427,0
0.0626,27.4649086234,0
0.0628,25.8928668824,0
0.063,24.0975905144,0
0.0632,22.37515913,0
0.0634,20.5046879404,0
0.0636,18.9326461994,0
0.0638,17.250162064,0
0.064,15.2668986419,0
0.0642,13.7324543117,0
0.0644,12.3859970357,0
0.0646,11.3755666192,0
0.0648,10.6259682405,0
0.065,9.72833005653,0
0.0652,8.83069187257,0
0.0654,8.38187278059,0
0.0656,7.97065109946,0
0.0658,7.25865013155,0
0.066,6.77223362873,0
0.0662,6.39860935844,0
0.0664,5.61141356884,0
0.0666,4.75137279573,0
0.0668,3.89133202261,0
0.067,2.73051196273,0
0.0672,1.27126245425,0
0.0674,-0.411221681134,0
0.0676,-2.62006956837,0
0.0678,-4.34015111459,0
0.068,-5.83699803392,0
0.0682,-7.89545627777,0
0.0684,-10.104304165,0
0.0686,-11.9747753546,0
0.0688,-13.7700517225,0
0.069,-15.4172882852,0
0.0692,-17.4005517074,0
0.0694,-18.59661934,0
0.0696,-19.2334254862,0
0.0698,-20.1310636701,0
0.07,-20.6926749946,0
0.0702,-20.6550775838,0
0.0704,-20.6926749946,0
0.0706,-20.9911044432,0
0.0708,-21.0662992649,0
0.071,-20.843064638,0
0.0712,-20.3190507244,0
0.0714,-19.8702316324,0
0.0716,-19.8326342215,0
0.0718,-19.8702316324,0
0.072,-19.7950368107,0
0.0722,-20.0182714376,0
0.0724,-20.6926749946,0
0.0726,-21.3670785517,0
0.0728,-22.0391322706,0
0.073,-22.9743678654,0
0.0732,-23.761563655,0
0.0734,-24.2855775687,0
0.0736,-24.6967992498,0
0.0738,-25.3712028069,0
0.074,-26.23124358,0
0.0742,-26.7176600828,0
0.0744,-26.7928549045,0
0.0746,-26.5296730286,0
0.0748,-25.9304642932,0
0.075,-25.4064503795,0
0.0752,-24.3607723904,0
0.0754,-22.9743678654,0
0.0756,-21.740702822,0
0.0758,-20.5422853513,0
0.076,-19.0830358428,0
0.0762,-17.7365785668,0
0.0764,-16.3901212909,0
0.0766,-14.8932743716,0
0.0768,-13.3588300414,0
0.077,-12.1604125707,0
0.0772,-11.3003717976,0
0.0774,-10.7011630622,0
0.0776,-10.104304165,0
0.0778,-9.50509542963,0
0.078,-8.98108151596,0
0.0782,-8.68265206736,0
0.0784,-8.49466501313,0
0.0786,-8.15863815369,0
0.0788,-7.63462424002,0
0.079,-7.22105272071,0
0.0792,-6.69938864521,0
0.0794,-5.98738767731,0
0.0796,-5.12734690419,0
0.0798,-4.22970872023,0
0.08,-2.88090160611,0
0.0802,-1.31120970327,0
0.0804,0.075194821693,0
0.0806,1.49684691933,0
0.0808,3.17933105471,0
0.081,4.93935984996,0
0.0812,6.80983103957,0
0.0814,8.45706760228,0
0.0816,9.65313523484,0
0.0818,10.9619950999,0
0.082,12.3483996249,0
0.0822,13.3964274522,0
0.0824,14.2188708145,0
0.0826,14.8556769607,0
0.0828,15.2668986419,0
0.083,15.5653280905,0
0.0832,15.7533151447,0
0.0834,15.9765497716,0
0.0836,16.1645368258,0
0.0838,16.126939415,0
0.084,16.0141471824,0
0.0842,16.126939415,0
0.0844,16.2773290584,0
0.0846,16.4629662744,0
0.0848,16.801342972,0
0.085,17.1373698315,0
0.0852,17.7741759777,0
0.0854,18.59661934,0
0.0856,19.3438678805,0
0.0858,20.0558688484,0
0.086,20.6550775838,0
0.0862,21.1038966758,0
0.0864,21.5903131786,0
0.0866,22.2271193248,0
0.0868,22.7487834003,0
0.087,23.0495626871,0
0.0872,23.1623549196,0
0.0874,22.9743678654,0
0.0876,22.5255487734,0
0.0878,22.0767296814,0
0.088,21.1414940866,0
0.0882,19.9806740267,0
0.0884,18.8574513777,0
0.0886,17.9222157829,0
0.0888,17.0621750098,0
0.089,16.126939415,0
0.0892,15.0789115876,0
0.0894,13.9932863494,0
0.0896,12.8724135386,0
0.0898,11.8619831221,0
0.09,11.187579565,0
0.0902,10.738760473,0
0.0904,10.2899413811,0
0.0906,9.98916209428,0
0.0908,9.84112228907,0
0.091,9.76592746738,0
0.0912,9.61553782399,0
0.0914,9.24191355371,0
0.0916,8.60510740749,0
0.0918,8.00589867213,0
0.092,7.59467699099,0
0.0922,6.99781809381,0
0.0924,6.2858171259,0
0.0926,5.38817894194,0
0.0928,4.11456664951,0
0.093,2.69291455188,0
0.0932,1.2336650434,0
0.0934,-0.263181875926,0
0.0936,-1.72243138441,0
0.0938,-3.21927830373,0
0.094,-4.56573557967,0
0.0942,-5.79940062307,0
0.0944,-6.80983103957,0
0.0946,-7.85785886692,0
0.0948,-8.94348410511,0
0.095,-9.91631711076,0
0.0952,-10.4779284353,0
0.0954,-10.6283180787,0
0.0956,-10.8515527056,0
0.0958,-11.0771371707,0
0.096,-11.1523319923,0
0.0962,-11.3003717976,0
0.0964,-11.4883588518,0
0.0966,-11.6011510843,0
0.0968,-11.7867883004,0
0.097,-12.2732048032,0
0.0972,-12.6844264843,0
0.0974,-13.2836352197,0
0.0976,-13.65725949,0
0.0978,-13.9580387768,0
0.098,-14.7428847282,0
0.0982,-15.678120323,0
0.0984,-16.5029135234,0
0.0986,-17.3629542966,0
0.0988,-18.0726054263,0
0.099,-18.7094115725,0
0.0992,-19.1958280753,0
0.0994,-19.4966073621,0
0.0996,-19.6822445781,0
0.0998,-19.7574393998,0
0.1,-19.5694523456,0
0.1002,-19.4214125404,0
0.1004,-19.271022897,0
0.1006,-18.9349960376,0
0.1008,-18.2229950697,0
0.101,-17.2125646532,0
0.1012,-16.1645368258,0
0.1014,-15.4548856961,0
0.1016,-14.7052873173,0
0.1018,-13.9580387768,0
0.102,-13.2460378089,0
0.1022,-12.7220238952,0
0.1024,-12.1980099815,0
0.1026,-11.7115934787,0
0.1028,-11.3003717976,0
0.103,-10.9643449381,0
0.1032,-10.5907206678,0
0.1034,-10.3275387919,0
0.1036,-10.1771491485,0
0.1038,-10.2147465594,0
0.104,-10.1419015758,0
0.1042,-9.69073264569,0
0.1044,-9.16906857019,0
0.1046,-8.83069187257,0
0.1048,-8.38187278059,0
0.105,-7.59702682917,0
0.1052,-6.73463621788,0
0.1054,-5.79940062307,0
0.1056,-4.82656761742,0
0.1058,-3.70569480656,0
0.106,-2.50727733583,0
0.1062,-1.34645727594,0
0.1064,-0.075194821693,0
0.1066,1.2336650434,0
0.1068,2.43208251413,0
0.107,3.36731810894,0
0.1072,4.18976147121,0
0.1074,5.08739965517,0
0.1076,6.09783007167,0
0.1078,6.88502586127,0
0.108,7.37144236409,0
0.1082,7.66987181269,0
0.1084,8.00589867213,0
0.1086,8.3066779589,0
0.1088,8.56750999665,0
0.109,8.94348410511,0
0.1092,9.27951096455,0
0.1094,9.65313523484,0
0.1096,9.98916209428,0
0.1098,10.4755785971,0
0.11,10.9995925108,0
0.1102,11.4131640301,0
0.1104,11.8619831221,0
0.1106,12.534036841,0
0.1108,13.3588300414,0
0.111,14.1812734037,0
0.1112,14.8556769607,0
0.1114,15.3420934636,0
0.1116,15.7909125555,0
0.1118,16.2397316475,0
0.112,16.575758507,0
0.1122,16.9493827772,0
0.1124,17.0997724206,0
0.1126,17.0997724206,0
0.1128,16.9869801881,0
0.113,16.801342972,0
0.1132,16.5381610961,0
0.1134,16.0893420041,0
0.1136,15.6405229121,0
0.1138,15.0789115876,0
0.114,14.5924950848,0
0.1142,14.2940656362,0
0.1144,13.9180915277,0
0.1146,13.4316750249,0
0.1148,12.9452585221,0
0.115,12.6844264843,0
0.1152,12.4235944466,0
0.1154,12.2732048032,0
0.1156,12.0476203381,0
0.1158,11.6739960678,0
0.116,11.3755666192,0
0.1162,11.187579565,0
0.1164,11.0747873325,0
0.1166,10.8515527056,0
0.1168,10.4403310244,0
0.117,9.87871969992,0
0.1172,9.24191355371,0
0.1174,8.5299125858,0
0.1176,7.93305368861,0
0.1178,7.22105272071,0
0.118,6.17302489336,0
0.1182,5.20019188771,0
0.1184,4.30255370375,0
0.1186,3.29212328725,0
0.1188,2.16890063821,0
0.119,1.0104304165,0
0.1192,-0.075194821693,0
0.1194,-0.89763818396,0
0.1196,-1.57204174102,0
0.1198,-2.28404270892,0
0.12,-2.91849901696,0
0.1202,-3.63049998487,0
0.1204,-4.34015111459,0
0.1206,-4.90176243911,0
0.1208,-5.24013913673,0
0.121,-5.57616599617,0
0.1212,-5.87459544477,0
0.1214,-6.32341453675,0
0.1216,-6.73463621788,0
0.1218,-6.92262327211,0
0.122,-7.2962475424,0
0.1222,-7.97065109946,0
0.1224,-8.56985983482,0
0.1226,-9.20431614286,0
0.1228,-9.80352487823,0
0.123,-10.3275387919,0
0.1232,-10.8515527056,0
0.1234,-11.5259562626,0
0.1236,-12.2732048032,0
0.1238,-13.0604005928,0
0.124,-13.6948569008,0
0.1242,-14.106078582,0
0.1244,-14.4820526904,0
0.1246,-14.9684691933,0
0.1248,-15.1917038202,0
0.125,-15.1541064093,0
0.1252,-15.043664015,0
0.1254,-15.043664015,0
0.1256,-15.043664015,0
0.1258,-15.0060666041,0
0.126,-14.780482139,0
0.1262,-14.4444552796,0
0.1264,-13.8828439551,0
0.1266,-13.3588300414,0
0.1268,-12.9852057711,0
0.127,-12.759621306,0
0.1272,-12.4987892683,0
0.1274,-12.2356073924,0
0.1276,-11.8619831221,0
0.1278,-11.6739960678,0
0.128,-11.6011510843,0
0.1282,-11.3755666192,0
0.1284,-10.9643449381,0
0.1286,-10.7011630622,0
0.1288,-10.553123257,0
0.129,-10.4779284353,0
0.1292,-10.2523439702,0
0.1294,-10.0291093433,0
0.1296,-9.61788766217,0
0.1298,-9.0186789268,0
0.13,-8.41947019144,0
0.1302,-7.82026145607,0
0.1304,-7.22105272071,0
0.1306,-6.47380418013,0
0.1308,-5.65136081786,0
0.131,-4.82656761742,0
0.1312,-4.11691648769,0
0.1314,-3.32972069809,0
0.1316,-2.20884788723,0
0.1318,-1.19841747073,0
0.132,-0.338376697619,0
0.1322,0.373624270287,0
0.1324,1.04802782735,0
0.1326,1.60963915187,0
0.1328,2.13130322736,0
0.133,2.88090160611,0
0.1332,3.51770775233,0
0.1334,3.96652684431,0
0.1336,4.34015111459,0
0.1338,4.78897020657,0
0.134,5.23778929855,0
0.1342,5.64901097969,0
0.1344,5.94979026646,0
0.1346,6.24821971505,0
0.1348,6.73463621788,0
0.135,7.40903977494,0
0.1352,8.08109349382,0
0.1354,8.68030222919,0
0.1356,9.16671873201,0
0.1358,9.65313523484,0
0.136,10.1395517377,0
0.1362,10.6635656513,0
0.1364,11.2627743867,0
0.1366,11.8243857112,0
0.1368,12.3108022141,0
0.137,12.7220238952,0
0.1372,13.0580507546,0
0.1374,13.3588300414,0
0.1376,13.5820646683,0
0.1378,13.5444672575,0
0.138,13.4692724358,0
0.1382,13.5068698466,0
0.1384,13.5820646683,0
0.1386,13.4692724358,0
0.1388,13.3212326306,0
0.139,13.1332455763,0
0.1392,12.7972187169,0
0.1394,12.6092316626,0
0.1396,12.4235944466,0
0.1398,12.2356073924,0
0.14,12.0476203381,0
0.1402,11.7867883004,0
0.1404,11.636398657,0
0.1406,11.5236064245,0
0.1408,11.4484116028,0
0.141,11.187579565,0
0.1412,10.8515527056,0
0.1414,10.4755785971,0
0.1416,10.2523439702,0
0.1418,10.1019543268,0
0.142,9.80352487823,0
0.1422,9.39230319709,0
0.1424,8.94348410511,0
0.1426,8.38187278059,0
0.1428,7.82026145607,0
0.143,7.18345530986,0
0.1432,6.39860935844,0
0.1434,5.68660839053,0
0.1436,5.01455467165,0
0.1438,4.37774852544,0
0.144,3.77853979007,0
0.1442,3.17933105471,0
0.1444,2.20649804905,0
0.1446,1.27126245425,0
0.1448,0.599208735366,0
0.145,0.0375974108465,0
0.1452,-0.524013913673,0
0.1454,-1.04802782735,0
0.1456,-1.60963915187,0
0.1458,-2.13365306554,0
0.146,-2.69526439006,0
0.1462,-3.21927830373,0
0.1464,-3.7432922174,0
0.1466,-4.26730613108,0
0.1468,-4.7537226339,0
0.147,-5.16494431504,0
0.1472,-5.57616599617,0
0.1474,-5.98738767731,0
0.1476,-6.47380418013,0
0.1478,-7.14820773719,0
0.148,-7.89545627777,0
0.1482,-8.3066779589,0
0.1484,-8.71789964003,0
0.1486,-9.20431614286,0
0.1488,-9.69073264569,0
0.149,-10.1419015758,0
0.1492,-10.5907206678,0
0.1494,-11.001942349,0
0.1496,-11.4131640301,0
0.1498,-11.7867883004,0
0.15,-12.1604125707,0
0.1502,-12.3859970357,0
0.1504,-12.4987892683,0
0.1506,-12.3483996249,0
0.1508,-12.3108022141,0
0.151,-12.3483996249,0
0.1512,-12.4987892683,0
0.1514,-12.5363866791,0
0.1516,-12.3859970357,0
0.1518,-12.1980099815,0
0.152,-12.0875675872,0
0.1522,-11.8243857112,0
0.1524,-11.5259562626,0
0.1526,-11.3003717976,0
0.1528,-11.1147345815,0
0.153,-10.9643449381,0
0.1532,-10.8891501164,0
0.1534,-10.8515527056,0
0.1536,-10.7011630622,0
0.1538,-10.3651362027,0
0.154,-9.91631711076,0
0.1542,-9.50509542963,0
