"Latest: Time (s)","Latest: Z-Axis Acceleration (m/s²)","Latest: Potential (mV)"
0,-49.4358955868,10.4785771575
0.0002,-45.3941739208,11.2320928182
0.0004,-43.072533801,11.2320928182
0.0006,-41.2396600223,11.2320928182
0.0008,-36.5258846374,11.6088506486
0.001,-31.7369144308,11.6088506486
0.0012,-30.6512891926,11.985608479
0.0014,-31.5113299657,12.3623663094
0.0016,-32.78259242,12.7391241398
0.0018,-34.6178160369,13.1158819702
0.002,-37.6843548591,12.3623663094
0.0022,-40.7156461086,11.985608479
0.0024,-46.1038250505,11.985608479
0.0026,-49.2103111217,11.985608479
0.0028,-49.6967276245,11.985608479
0.003,-51.1935745439,11.6088506486
0.0032,-54.8240745287,11.6088506486
0.0034,-54.523295242,10.8553349879
0.0036,-52.3896421764,10.4785771575
0.0038,-50.4439761651,10.1018193271
0.004,-46.4422017481,9.37185103074
0.0042,-40.9036331628,8.99509320036
0.0044,-34.0186073016,8.99509320036
0.0046,-24.3654720667,8.24157753959
0.0048,-13.4763219503,7.86481970921
0.005,-4.68322748857,7.48806187883
0.0052,4.9346601736,6.73454621807
0.0054,13.9509892622,6.35778838769
0.0056,21.397626448,5.9810305573
0.0058,27.7962358065,5.60427272692
0.006,33.0363749432,5.22751489654
0.0062,37.5621632738,4.87430443056
0.0064,41.4182477238,4.49754660018
0.0066,44.5975787785,4.1207887698
0.0068,47.3656881521,4.1207887698
0.007,49.6873282718,3.36727310903
0.0072,51.7081891048,2.99051527865
0.0074,53.3530758294,2.99051527865
0.0076,54.774727927,2.61375744827
0.0078,56.0483402194,2.61375744827
0.008,57.0963680468,2.61375744827
0.0082,57.9564088199,2.23699961789
0.0084,58.7036573605,2.23699961789
0.0086,59.3780609175,1.86024178751
0.0088,59.9772696529,1.86024178751
0.009,60.4636861557,1.86024178751
0.0092,60.837310426,1.86024178751
0.0094,61.2109346963,2.23699961789
0.0096,61.4365191614,2.23699961789
0.0098,61.73494861,2.23699961789
0.01,61.960533075,2.23699961789
0.0102,62.1461702911,2.61375744827
0.0104,62.2589625236,2.61375744827
0.0106,62.409352167,2.61375744827
0.0108,62.5221443996,2.61375744827
0.011,62.6701842048,2.99051527865
0.0112,62.7453790265,3.36727310903
0.0114,62.8205738481,3.36727310903
0.0116,62.858171259,3.36727310903
0.0118,62.9709634915,4.1207887698
0.012,62.858171259,4.49754660018
0.0122,60.5012835666,4.49754660018
0.0124,56.5347567222,4.87430443056
0.0126,51.9314237317,5.22751489654
0.0128,46.5432447898,5.60427272692
0.013,39.994245788,5.60427272692
0.0132,34.9068461328,5.9810305573
0.0134,30.2283183206,6.35778838769
0.0136,24.7296969843,6.35778838769
0.0138,20.6503779074,6.73454621807
0.014,17.3582546202,7.11130404845
0.0142,14.0261840839,7.11130404845
0.0144,10.7716582075,7.48806187883
0.0146,8.60040773114,7.48806187883
0.0148,6.39390968208,7.86481970921
0.015,4.9346601736,7.86481970921
0.0152,3.40021584343,8.24157753959
0.0154,1.34175759958,8.24157753959
0.0156,-0.641505822568,8.24157753959
0.0158,-2.84800387162,8.24157753959
0.016,-5.84169771028,8.24157753959
0.0162,-10.0338090197,8.24157753959
0.0164,-14.3363627234,7.86481970921
0.0166,-18.9772931248,7.86481970921
0.0168,-24.3278746559,7.48806187883
0.017,-30.1272752789,7.48806187883
0.0172,-35.3650645775,7.11130404845
0.0174,-41.2020626114,7.11130404845
0.0176,-47.0014632345,6.35778838769
0.0178,-51.7551858684,5.9810305573
0.018,-56.4313638424,5.9810305573
0.0182,-60.5106829193,5.60427272692
0.0184,-63.2787922928,4.87430443056
0.0186,-65.1516133206,4.49754660018
0.0188,-66.7213052235,4.1207887698
0.019,-66.6108628291,3.36727310903
0.0192,-65.262055715,2.99051527865
0.0194,-63.8404036174,2.61375744827
0.0196,-61.7443479627,2.23699961789
0.0198,-58.7882515349,1.48348395713
0.02,-55.4209334259,1.10672612675
0.0202,-52.3543946038,0.729968296364
0.0204,-48.9847266566,0.353210465983
0.0206,-45.8429930128,0
0.0208,-43.5237027312,0
0.021,-41.6508817034,0
0.0212,-40.3044244274,0
0.0214,-40.41721666,0
0.0216,-41.7260765251,0
0.0218,-43.4861053203,0
0.022,-46.9662156618,0
0.0222,-50.2959363599,0
0.0224,-52.6904214632,0
0.0226,-54.9721143339,0
0.0228,-56.8049881127,0
0.023,-56.095336983,0
0.0232,-54.3729055986,0
0.0234,-52.3896421764,0
0.0236,-48.7238946189,0
0.0238,-44.3461460934,0
0.024,-40.5676063034,0
0.0242,-36.1875079398,0
0.0244,-30.9873160521,0
0.0246,-26.1607484346,0
0.0248,-20.8477643144,0
0.025,-15.083611264,0
0.0252,-10.7810575602,0
0.0254,-7.56412909468,0
0.0256,-5.72890547774,0
0.0258,-4.83126729378,0
0.026,-5.28008638576,0
0.0262,-6.66649091072,0
0.0264,-8.23618281356,0
0.0266,-9.73302973289,0
0.0268,-11.3802662956,0
0.027,-13.1379452527,0
0.0272,-14.9355714588,0
0.0274,-17.104472097,0
0.0276,-19.3509173951,0
0.0278,-20.9229591361,0
0.028,-21.7829999092,0
0.0282,-20.8101669035,0
0.0284,-18.5261241946,0
0.0286,-15.8708070536,0
0.0288,-12.165112247,0
0.029,-7.82496113243,0
0.0292,-3.59760225037,0
0.0294,0.519314237317,0
0.0296,4.63388088683,0
0.0298,8.75079737452,0
0.03,12.3812973594,0
0.0302,16.5710588306,0
0.0304,20.3871960315,0
0.0306,23.2680976376,0
0.0308,24.7296969843,0
0.031,25.5521403466,0
0.0312,25.1785160763,0
0.0314,23.867306373,0
0.0316,22.5960439187,0
0.0318,20.8736125343,0
0.032,18.5167248419,0
0.0322,16.6838510631,0
0.0324,15.0366145004,0
0.0326,13.4645727594,0
0.0328,11.8196860349,0
0.033,10.658865975,0
0.0332,9.87402002356,0
0.0334,10.0972546505,0
0.0336,11.4460617646,0
0.0338,13.5773649919,0
0.034,16.1222397386,0
0.0342,19.0031413447,0
0.0344,22.0720300051,0
0.0346,25.1409186654,0
0.0348,28.0218202715,0
0.035,31.1635539154,0
0.0352,33.3348043918,0
0.0354,35.0572357762,0
0.0356,36.8525121441,0
0.0358,37.7501503281,0
0.036,37.6373580955,0
0.0362,36.7397199116,0
0.0364,34.7188590786,0
0.0366,31.9131522941,0
0.0368,29.3306801366,0
0.037,26.7106105683,0
0.0372,23.4560846919,0
0.0374,20.4247934424,0
0.0376,17.5814892471,0
0.0378,14.9238222679,0
0.038,12.4188947702,0
0.0382,10.3980339372,0
0.0384,9.2748112882,0
0.0386,8.33957569339,0
0.0388,8.00354883395,0
0.039,9.08682423396,0
0.0392,10.6212685641,0
0.0394,11.8196860349,0
0.0396,13.1661433108,0
0.0398,14.2893659598,0
0.04,14.9614196787,0
0.0402,15.8990051117,0
0.0404,16.4582665981,0
0.0406,16.272629382,0
0.0408,16.0470449169,0
0.041,15.1118093221,0
0.0412,13.3165329542,0
0.0414,11.1452824778,0
0.0416,8.41477051508,0
0.0418,5.0098549953,0
0.042,1.11852297268,0
0.0422,-1.98796309851,0
0.0424,-4.94405952631,0
0.0426,-7.82496113243,0
0.0428,-10.5578229333,0
0.043,-13.1003478418,0
0.0432,-15.1588060857,0
0.0434,-16.9188348809,0
0.0436,-17.6284860107,0
0.0438,-18.1149025135,0
0.044,-18.2652921569,0
0.0442,-17.5156937781,0
0.0444,-16.5076131998,0
0.0446,-15.5700277668,0
0.0448,-14.2235704909,0
0.045,-12.9147106258,0
0.0452,-12.613931339,0
0.0454,-12.2027096579,0
0.0456,-11.4178637064,0
0.0458,-11.2674740631,0
0.046,-11.4554611173,0
0.0462,-12.2403070687,0
0.0464,-13.3635297178,0
0.0466,-14.7099869937,0
0.0468,-16.5076131998,0
0.047,-18.4532792111,0
0.0472,-20.3989452224,0
0.0474,-22.4926510389,0
0.0476,-24.2150824233,0
0.0478,-25.7119293427,0
0.048,-26.8351519917,0
0.0482,-27.5824005323,0
0.0484,-28.2192066785,0
0.0486,-28.7432205922,0
0.0488,-28.3296490728,0
0.049,-27.2463736728,0
0.0492,-26.1983458455,0
0.0494,-24.5135118719,0
0.0496,-22.6054432715,0
0.0498,-20.9229591361,0
0.05,-19.0501381083,0
0.0502,-16.9940297026,0
0.0504,-15.1964034965,0
0.0506,-13.9251410423,0
0.0508,-12.5410863555,0
0.051,-11.3426688848,0
0.0512,-10.4826281116,0
0.0514,-10.0338090197,0
0.0516,-10.0338090197,0
0.0518,-10.4450307008,0
0.052,-11.2298766522,0
0.0522,-11.8290853876,0
0.0524,-12.3530993013,0
0.0526,-12.9523080366,0
0.0528,-13.2883348961,0
0.053,-13.551516772,0
0.0532,-13.8499462206,0
0.0534,-13.5867643447,0
0.0536,-13.0651002692,0
0.0538,-12.4658915338,0
0.054,-11.4930585281,0
0.0542,-9.92101678712,0
0.0544,-8.23618281356,0
0.0546,-5.99208735366,0
0.0548,-3.56000483953,0
0.055,-1.27831196878,0
0.0552,0.892938507604,0
0.0554,3.1370339675,0
0.0556,5.2330896222,0
0.0558,7.06596340096,0
0.056,8.78839478537,0
0.0562,10.3228391155,0
0.0564,11.1828798887,0
0.0566,12.0429206618,0
0.0568,12.7925190405,0
0.057,13.1285459,0
0.0572,12.7173242188,0
0.0574,12.4188947702,0
0.0576,12.3061025377,0
0.0578,11.7444912132,0
0.058,11.6316989806,0
0.0582,11.5189067481,0
0.0584,11.4460617646,0
0.0586,11.5189067481,0
0.0588,11.8196860349,0
0.059,12.7173242188,0
0.0592,13.7653520462,0
0.0594,14.8885746952,0
0.0596,16.0470449169,0
0.0598,17.3935021929,0
0.06,18.8527517013,0
0.0602,20.314351048,0
0.0604,21.5856135022,0
0.0606,22.4832516862,0
0.0608,23.5688769244,0
0.061,24.3913202867,0
0.0612,24.8777367895,0
0.0614,25.4769455249,0
0.0616,25.2889584706,0
0.0618,24.3913202867,0
0.062,23.5312795136,0
0.0622,22.5208490971,0
0.0624,21.2495866428,0
0.0626,20.0511691721,0
0.0628,18.8527517013,0
0.063,17.4686970146,0
0.0632,16.272629382,0
0.0634,15.374991198,0
0.0636,14.3269633707,0
0.0638,13.2789355433,0
0.064,12.230907716,0
0.0642,11.8572834457,0
0.0644,11.8196860349,0
0.0646,11.9700756783,0
0.0648,12.5293371646,0
0.065,12.8677138622,0
0.0652,12.8301164514,0
0.0654,12.9781562566,0
0.0656,13.0157536674,0
0.0658,12.7925190405,0
0.066,12.4917397538,0
0.0662,12.0805180726,0
0.0664,11.3708669429,0
0.0666,10.9220478509,0
0.0668,10.0220598288,0
0.067,8.52756274762,0
0.0672,6.80513136322,0
0.0674,4.82186794106,0
0.0676,2.83860451891,0
0.0678,1.11852297268,0
0.068,-0.415921357489,0
0.0682,-1.95036568766,0
0.0684,-3.63519966122,0
0.0686,-5.0944491697,0
0.0688,-6.3281142131,0
0.069,-7.3385446296,0
0.0692,-8.38657245695,0
0.0694,-9.06097601401,0
0.0696,-9.32180805175,0
0.0698,-9.54739251683,0
0.07,-9.17141840837,0
0.0702,-8.87298895977,0
0.0704,-9.06097601401,0
0.0706,-9.20901581921,0
0.0708,-9.39700287345,0
0.071,-9.58498992768,0
0.0712,-9.73302973289,0
0.0714,-9.84582196543,0
0.0716,-10.3322384683,0
0.0718,-11.0066420253,0
0.072,-11.716293155,0
0.0722,-12.8019183932,0
0.0724,-13.8123488097,0
0.0726,-15.3091957291,0
0.0728,-16.7684452375,0
0.073,-18.0397076918,0
0.0732,-19.0501381083,0
0.0734,-19.8373338979,0
0.0736,-20.6221798493,0
0.0738,-21.4446232116,0
0.074,-22.1566241795,0
0.0742,-22.6054432715,0
0.0744,-22.718235504,0
0.0746,-22.4926510389,0
0.0748,-22.0438319469,0
0.075,-21.7078050875,0
0.0752,-20.8101669035,0
0.0754,-19.6493468437,0
0.0756,-18.7893060705,0
0.0758,-18.0021102809,0
0.076,-17.2548617404,0
0.0762,-16.5804581833,0
0.0764,-15.9460018753,0
0.0766,-15.1588060857,0
0.0768,-14.3363627234,0
0.077,-14.000335864,0
0.0772,-13.8875436314,0
0.0774,-13.8875436314,0
0.0776,-13.8499462206,0
0.0778,-13.9627384531,0
0.078,-14.0731808475,0
0.0782,-14.0379332748,0
0.0784,-14.0731808475,0
0.0786,-13.6619591663,0
0.0788,-13.1003478418,0
0.079,-12.613931339,0
0.0792,-11.9418776201,0
0.0794,-11.3426688848,0
0.0796,-10.4826281116,0
0.0798,-9.24661323006,0
0.08,-7.63932391637,0
0.0802,-5.99208735366,0
0.0804,-4.34485079095,0
0.0806,-2.69996406641,0
0.0808,-1.09032491455,0
0.081,0.519314237317,0
0.0812,1.94096633495,0
0.0814,3.36261843258,0
0.0816,4.52343849247,0
0.0818,5.53386890897,0
0.082,6.76753395237,0
0.0822,7.70276954718,0
0.0824,8.22678346085,0
0.0826,8.67560255283,0
0.0828,8.82599219622,0
0.083,8.82599219622,0
0.0832,9.08682423396,0
0.0834,9.57324073679,0
0.0836,9.76122779102,0
0.0838,10.0220598288,0
0.084,10.4732287589,0
0.0842,10.9220478509,0
0.0844,11.5565041589,0
0.0846,12.1181154835,0
0.0848,12.9053112731,0
0.085,13.8405468679,0
0.0852,14.7757824627,0
0.0854,16.0094475061,0
0.0856,17.3206572093,0
0.0858,18.3663351985,0
0.086,19.0783361664,0
0.0862,19.7151423126,0
0.0864,20.314351048,0
0.0866,20.948807356,0
0.0868,21.397626448,0
0.087,21.397626448,0
0.0872,21.5856135022,0
0.0874,21.3224316263,0
0.0876,20.76317014,0
0.0878,20.314351048,0
0.088,19.5271552584,0
0.0882,18.4791274311,0
0.0884,17.6190866579,0
0.0886,16.90708569,0
0.0888,16.3102267928,0
0.089,15.82381029,0
0.0892,15.1870041438,0
0.0894,14.4750031759,0
0.0896,13.9509892622,0
0.0898,13.5773649919,0
0.09,13.4293251867,0
0.0902,13.4293251867,0
0.0904,13.2789355433,0
0.0906,13.3917277759,0
0.0908,13.5397675811,0
0.091,13.4293251867,0
0.0912,13.3165329542,0
0.0914,12.9781562566,0
0.0916,12.3061025377,0
0.0918,11.5565041589,0
0.092,11.0324902453,0
0.0922,10.3604365264,0
0.0924,9.50039575328,0
0.0926,8.2643808717,0
0.0928,6.61714430898,0
0.093,5.34588185474,0
0.0932,3.88663234626,0
0.0934,2.23939578354,0
0.0936,0.892938507604,0
0.0938,-0.453518768336,0
0.094,-1.61433882822,0
0.0942,-2.69996406641,0
0.0944,-3.56000483953,0
0.0946,-4.3824482018,0
0.0948,-5.35528120745,0
0.095,-6.21532198056,0
0.0952,-6.62889349987,0
0.0954,-6.70173848339,0
0.0956,-6.92732294847,0
0.0958,-7.15290741355,0
0.096,-7.37614204045,0
0.0962,-7.86255854327,0
0.0964,-8.23618281356,0
0.0966,-8.64975433287,0
0.0968,-9.28421064091,0
0.097,-9.95861419797,0
0.0972,-10.6682653277,0
0.0974,-11.3426688848,0
0.0976,-12.1275148362,0
0.0978,-12.9147106258,0
0.098,-14.000335864,0
0.0982,-15.1964034965,0
0.0984,-16.2820287347,0
0.0986,-17.2172643295,0
0.0988,-17.778875654,0
0.099,-18.3780843894,0
0.0992,-18.9020983031,0
0.0994,-19.2757225734,0
0.0996,-19.4261122168,0
0.0998,-19.3509173951,0
0.1,-19.2757225734,0
0.1002,-19.1629303408,0
0.1004,-18.9020983031,0
0.1006,-18.4532792111,0
0.1008,-17.8540704757,0
0.101,-17.0668746861,0
0.1012,-16.3196261456,0
0.1014,-16.021196697,0
0.1016,-15.6828199993,0
0.1018,-15.2340009074,0
0.102,-14.7851818154,0
0.1022,-14.4115575451,0
0.1024,-14.2611679017,0
0.1026,-14.1107782583,0
0.1028,-13.9251410423,0
0.103,-13.8123488097,0
0.1032,-13.551516772,0
0.1034,-13.4387245394,0
0.1036,-13.4011271286,0
0.1038,-13.2507374852,0
0.104,-12.7267235715,0
0.1042,-11.9042802093,0
0.1044,-11.1194342579,0
0.1046,-10.3698358791,0
0.1048,-9.58498992768,0
0.105,-8.64975433287,0
0.1052,-7.52653168383,0
0.1054,-6.29051680226,0
0.1056,-4.90646211547,0
0.1058,-3.67279707207,0
0.106,-2.32398995795,0
0.1062,-1.01513009286,0
0.1064,0.293729772238,0
0.1066,1.34175759958,0
0.1068,2.12895338918,0
0.107,2.95139675145,0
0.1072,3.62345047033,0
0.1074,4.44824367078,0
0.1076,5.12029738966,0
0.1078,5.75710353587,0
0.108,6.13072780616,0
0.1082,6.28111744954,0
0.1084,6.65474171983,0
0.1086,6.91792359576,0
0.1088,7.29154786604,0
0.109,7.74036695802,0
0.1092,8.2643808717,0
0.1094,8.86358960706,0
0.1096,9.61083814764,0
0.1098,10.4356313481,0
0.11,11.0700876561,0
0.1102,11.6316989806,0
0.1104,12.3061025377,0
0.1106,13.0909484891,0
0.1108,14.0637814948,0
0.111,14.8885746952,0
0.1112,15.5982258249,0
0.1114,16.2350319712,0
0.1116,16.6086562414,0
0.1118,17.0198779226,0
0.112,17.170267566,0
0.1122,17.2078649768,0
0.1124,17.2078649768,0
0.1126,17.0198779226,0
0.1128,16.8342407065,0
0.113,16.7590458848,0
0.1132,16.4958640089,0
0.1134,15.8990051117,0
0.1136,15.374991198,0
0.1138,14.9238222679,0
0.114,14.4374057651,0
0.1142,14.2141711382,0
0.1144,14.0261840839,0
0.1146,13.7653520462,0
0.1148,13.5021701702,0
0.115,13.2789355433,0
0.1152,13.1285459,0
0.1154,12.9429086839,0
0.1156,12.6421293971,0
0.1158,12.3061025377,0
0.116,12.1181154835,0
0.1162,11.8196860349,0
0.1164,11.6692963915,0
0.1166,11.333269532,0
0.1168,10.5836711533,0
0.117,9.76122779102,0
0.1172,9.01397925045,0
0.1174,8.15158863916,0
0.1176,7.32914527689,0
0.1178,6.43150709293,0
0.118,5.49627149812,0
0.1182,4.48584108162,0
0.1184,3.51300807597,0
0.1186,2.46498024862,0
0.1188,1.41695242128,0
0.119,0.406522004778,0
0.1192,-0.679103233415,0
0.1194,-1.3511569523,0
0.1196,-1.83757345512,0
0.1198,-2.32398995795,0
0.12,-2.96079610416,0
0.1202,-3.59760225037,0
0.1204,-4.23440839659,0
0.1206,-4.79366988293,0
0.1208,-5.28008638576,0
0.121,-5.69365790507,0
0.1212,-6.02968476451,0
0.1214,-6.51610126733,0
0.1216,-7.00251777016,0
0.1218,-7.3385446296,0
0.122,-7.97535077581,0
0.1222,-8.76019672723,0
0.1224,-9.62258733853,0
0.1226,-10.4450307008,0
0.1228,-11.0066420253,0
0.123,-11.4554611173,0
0.1232,-11.9418776201,0
0.1234,-12.5786837663,0
0.1236,-13.2507374852,0
0.1238,-13.8499462206,0
0.124,-14.2987653126,0
0.1242,-14.634792172,0
0.1244,-14.9355714588,0
0.1246,-15.0483636913,0
0.1248,-15.0107662805,0
0.125,-14.8603766371,0
0.1252,-14.5243497776,0
0.1254,-14.3739601343,0
0.1256,-14.2611679017,0
0.1258,-14.2611679017,0
0.126,-14.0731808475,0
0.1262,-13.6619591663,0
0.1264,-13.2507374852,0
0.1266,-12.9147106258,0
0.1268,-12.613931339,0
0.127,-12.3906967121,0
0.1272,-12.2403070687,0
0.1274,-12.0170724418,0
0.1276,-11.7538905659,0
0.1278,-11.716293155,0
0.128,-11.6410983333,0
0.1282,-11.4178637064,0
0.1284,-10.9314472036,0
0.1286,-10.4826281116,0
0.1288,-10.1818488249,0
0.129,-9.88341937627,0
0.1292,-9.54739251683,0
0.1294,-9.06097601401,0
0.1296,-8.38657245695,0
0.1298,-7.52653168383,0
0.13,-6.73933589424,0
0.1302,-6.02968476451,0
0.1304,-5.16964399139,0
0.1306,-4.3072533801,0
0.1308,-3.44721260699,0
0.131,-2.69996406641,0
0.1312,-2.02556050936,0
0.1314,-1.20311714709,0
0.1316,-0.378323946643,0
0.1318,0.444119415624,0
0.132,1.1913679562,0
0.1322,1.67778445903,0
0.1324,2.05375856749,0
0.1326,2.46498024862,0
0.1328,2.95139675145,0
0.133,3.47541066512,0
0.1332,3.9242297571,0
0.1334,4.29785402739,0
0.1336,4.82186794106,0
0.1338,5.42107667643,0
0.134,5.83229835756,0
0.1342,6.31871486039,0
0.1344,6.72993654152,0
0.1346,7.0307158283,0
0.1348,7.70276954718,0
0.135,8.48996533678,0
0.1352,9.2748112882,0
0.1354,9.83642261272,0
0.1356,10.3228391155,0
0.1358,10.7340607967,0
0.136,11.107685067,0
0.1362,11.5189067481,0
0.1364,11.8572834457,0
0.1366,12.230907716,0
0.1368,12.4188947702,0
0.137,12.679726808,0
0.1372,12.9429086839,0
0.1374,12.9781562566,0
0.1376,12.8301164514,0
0.1378,12.6045319863,0
0.138,12.4188947702,0
0.1382,12.3061025377,0
0.1384,12.2685051268,0
0.1386,12.2685051268,0
0.1388,12.1933103052,0
0.139,11.9700756783,0
0.1392,11.6316989806,0
0.1394,11.5189067481,0
0.1396,11.4084643537,0
0.1398,11.107685067,0
0.14,10.9220478509,0
0.1402,10.8092556184,0
0.1404,10.7716582075,0
0.1406,10.6212685641,0
0.1408,10.3604365264,0
0.141,10.0220598288,0
0.1412,9.53564332594,0
0.1414,9.08682423396,0
0.1416,8.71319996368,0
0.1418,8.41477051508,0
0.142,8.00354883395,0
0.1422,7.40434009858,0
0.1424,6.72993654152,0
0.1426,6.09313039531,0
0.1428,5.49627149812,0
0.143,4.82186794106,0
0.1432,4.07461940049,0
0.1434,3.40021584343,0
0.1436,2.83860451891,0
0.1438,2.23939578354,0
0.144,1.75297928072,0
0.1442,1.15612038353,0
0.1444,0.444119415624,0
0.1446,-0.192686730588,0
0.1448,-0.754298055108,0
0.145,-1.27831196878,0
0.1452,-1.65193623907,0
0.1454,-1.98796309851,0
0.1456,-2.54957442303,0
0.1458,-2.99839351501,0
0.146,-3.44721260699,0
0.1462,-3.89603169897,0
0.1464,-4.49524043433,0
0.1466,-5.16964399139,0
0.1468,-5.65606049422,0
0.147,-6.02968476451,0
0.1472,-6.47850385649,0
0.1474,-6.85212812677,0
0.1476,-7.26334980791,0
0.1478,-7.90015595412,0
0.148,-8.53696210033,0
0.1482,-8.98578119231,0
0.1484,-9.3594054626,0
0.1486,-9.6578349112,0
0.1488,-10.0338090197,0
0.149,-10.3322384683,0
0.1492,-10.4450307008,0
0.1494,-10.5954203442,0
0.1496,-10.7434601494,0
0.1498,-10.9314472036,0
0.15,-11.081836847,0
0.1502,-11.1546818305,0
0.1504,-11.081836847,0
0.1506,-10.9314472036,0
0.1508,-10.7434601494,0
0.151,-10.7058627385,0
0.1512,-10.7434601494,0
0.1514,-10.7058627385,0
0.1516,-10.5578229333,0
0.1518,-10.4074332899,0
0.152,-10.2570436466,0
0.1522,-10.144251414,0
0.1524,-10.0338090197,0
0.1526,-9.77062714373,0
0.1528,-9.58498992768,0
0.153,-9.43460028429,0
0.1532,-9.3594054626,0
0.1534,-9.20901581921,0
0.1536,-8.91058637062,0
0.1538,-8.53696210033,0
0.154,-8.08814300835,0
0.1542,-7.67692132722,0
