"Latest: Time (s)","Latest: Z-Axis Acceleration (m/s²)","Latest: Potential (mV)"
0,-71.2118459815,10.4785771575
0.0002,-71.8486521277,11.2320928182
0.0004,-73.6439284956,10.8553349879
0.0006,-75.2911650583,10.4785771575
0.0008,-75.4415547017,10.4785771575
0.001,-73.1951094036,11.2320928182
0.0012,-71.5478728409,11.2320928182
0.0014,-70.5750398352,11.2320928182
0.0016,-69.1533877376,11.2320928182
0.0018,-70.0157783489,10.4785771575
0.002,-71.0262087654,10.1018193271
0.0022,-71.2494433923,9.74860886112
0.0024,-71.8486521277,9.37185103074
0.0026,-71.0262087654,8.99509320036
0.0028,-66.159693899,8.61833536997
0.003,-59.4250576811,8.24157753959
0.0032,-53.8864890957,7.48806187883
0.0034,-47.6758667915,7.11130404845
0.0036,-41.9516609902,6.35778838769
0.0038,-37.3859254105,5.9810305573
0.004,-30.5760943709,5.60427272692
0.0042,-20.6597772602,4.87430443056
0.0044,-10.144251414,4.49754660018
0.0046,0.556911648164,4.1207887698
0.0048,10.1724494722,3.36727310903
0.005,18.2558928042,3.36727310903
0.0052,25.0657238437,2.99051527865
0.0054,30.6771374126,2.61375744827
0.0056,35.4684574573,2.23699961789
0.0058,39.545426696,2.23699961789
0.006,43.1007318592,2.23699961789
0.0062,46.0944256978,1.86024178751
0.0064,48.5641056228,1.48348395713
0.0066,50.7353560992,1.48348395713
0.0068,52.5306324671,1.48348395713
0.007,54.0650767973,1.48348395713
0.0072,55.4491314841,1.48348395713
0.0074,56.5347567222,1.48348395713
0.0076,57.5451871387,1.48348395713
0.0078,58.3300330902,1.86024178751
0.008,59.0044366472,2.23699961789
0.0082,59.5660479717,2.61375744827
0.0084,60.1629068689,2.61375744827
0.0086,60.6117259609,2.99051527865
0.0088,60.9501026585,2.99051527865
0.009,61.2485321071,3.36727310903
0.0092,61.5493113939,4.1207887698
0.0094,61.7725460208,4.49754660018
0.0096,61.9981304859,4.49754660018
0.0098,62.1837677019,5.22751489654
0.01,62.3341573453,5.60427272692
0.0102,62.409352167,5.9810305573
0.0104,62.4845469887,6.35778838769
0.0106,61.8101434316,7.11130404845
0.0108,61.4365191614,7.48806187883
0.011,60.1253094581,8.24157753959
0.0112,57.2820052628,8.61833536997
0.0114,53.2778810077,8.99509320036
0.0116,47.5912726171,9.37185103074
0.0118,42.4263283021,9.74860886112
0.012,36.626927679,10.4785771575
0.0122,29.6667069961,10.4785771575
0.0124,21.2495866428,10.8553349879
0.0126,14.1765737273,11.2320928182
0.0128,7.58997731464,11.2320928182
0.013,0.368924593931,11.6088506486
0.0132,-6.02968476451,11.2320928182
0.0134,-11.1194342579,11.6088506486
0.0136,-16.206833913,11.6088506486
0.0138,-21.7829999092,11.6088506486
0.014,-25.187915429,11.2320928182
0.0142,-27.8079849973,11.2320928182
0.0144,-29.7160535978,10.8553349879
0.0146,-30.8745238195,10.4785771575
0.0148,-31.1001082846,10.4785771575
0.015,-30.6888866035,10.1018193271
0.0152,-29.415274311,9.74860886112
0.0154,-27.0959840294,9.37185103074
0.0156,-25.4111500559,8.99509320036
0.0158,-23.8038607422,8.24157753959
0.016,-22.0062345361,7.48806187883
0.0162,-20.0605685248,7.11130404845
0.0164,-18.1149025135,6.35778838769
0.0166,-15.6452225885,5.9810305573
0.0168,-13.4011271286,5.60427272692
0.017,-11.7538905659,5.22751489654
0.0172,-10.0714064305,4.49754660018
0.0174,-8.31137763525,4.1207887698
0.0176,-6.73933589424,3.36727310903
0.0178,-5.58086567253,2.99051527865
0.018,-4.34485079095,2.23699961789
0.0182,-2.99839351501,1.86024178751
0.0184,-1.01513009286,1.48348395713
0.0186,1.82817410241,1.10672612675
0.0188,4.67147829768,0.729968296364
0.019,6.91792359576,0.353210465983
0.0192,9.38760352074,0
0.0194,12.1933103052,0
0.0196,14.700587641,0
0.0198,17.6190866579,0
0.02,20.2015588155,0
0.0202,21.7736005565,0
0.0204,23.232850065,0
0.0206,24.6545021626,0
0.0208,25.1785160763,0
0.021,25.2513610598,0
0.0212,24.3913202867,0
0.0214,22.1472248268,0
0.0216,19.1535309881,0
0.0218,16.4958640089,0
0.022,14.0261840839,0
0.0222,11.0324902453,0
0.0224,8.03879640662,0
0.0226,5.38347926558,0
0.0228,2.76340969722,0
0.023,-0.791895465954,0
0.0232,-4.0840187532,0
0.0234,-7.04011518101,0
0.0236,-10.3698358791,0
0.0238,-12.9523080366,0
0.024,-14.5595973503,0
0.0242,-15.5700277668,0
0.0244,-16.2444313239,0
0.0246,-16.9940297026,0
0.0248,-18.1524999243,0
0.025,-19.0501381083,0
0.0252,-19.1629303408,0
0.0254,-20.0229711139,0
0.0256,-21.2213885847,0
0.0258,-22.2318190012,0
0.026,-22.7558329148,0
0.0262,-23.167054596,0
0.0264,-23.841458153,0
0.0266,-24.7014989262,0
0.0268,-26.4967752941,0
0.027,-28.5176361271,0
0.0272,-30.1648726898,0
0.0274,-31.69931702,0
0.0276,-33.2690089228,0
0.0278,-34.6178160369,0
0.028,-35.926675902,0
0.0282,-37.6115098756,0
0.0284,-38.6947852756,0
0.0286,-39.070759384,0
0.0288,-40.0059949789,0
0.029,-40.866035752,0
0.0292,-40.6780486977,0
0.0294,-40.0811898005,0
0.0296,-39.3315914218,0
0.0298,-38.0979263784,0
0.03,-36.824314086,0
0.0302,-36.4130924048,0
0.0304,-35.8890784912,0
0.0306,-34.9162454855,0
0.0308,-34.0938021232,0
0.031,-33.4193985662,0
0.0312,-32.8577872417,0
0.0314,-32.78259242,0
0.0316,-32.9705794742,0
0.0318,-33.0081768851,0
0.032,-33.5697882096,0
0.0322,-35.0666351289,0
0.0324,-36.4130924048,0
0.0326,-37.498717643,0
0.0328,-38.5091480595,0
0.033,-39.1083567949,0
0.0332,-39.3315914218,0
0.0334,-39.6676182812,0
0.0336,-40.1916321949,0
0.0338,-40.0811898005,0
0.034,-39.6676182812,0
0.0342,-38.9203697407,0
0.0344,-37.6115098756,0
0.0346,-35.7762862586,0
0.0348,-34.0186073016,0
0.035,-31.69931702,0
0.0352,-28.5176361271,0
0.0354,-25.8975665587,0
0.0356,-24.0270953691,0
0.0358,-21.7454024983,0
0.036,-19.4261122168,0
0.0362,-17.3676539729,0
0.0364,-15.0107662805,0
0.0366,-12.7643209824,0
0.0368,-10.8186549711,0
0.037,-9.20901581921,0
0.0372,-7.37614204045,0
0.0374,-5.58086567253,0
0.0376,-3.85843428812,0
0.0378,-2.17595015274,0
0.038,-0.603908411722,0
0.0382,1.30416018874,0
0.0384,3.62345047033,0
0.0386,6.50670191462,0
0.0388,9.12442164481,0
0.039,13.0157536674,0
0.0392,16.3854216145,0
0.0394,19.0783361664,0
0.0396,23.3808898702,0
0.0398,27.3850141253,0
0.04,30.827527056,0
0.0402,33.6708312512,0
0.0404,37.5621632738,0
0.0406,41.4182477238,0
0.0408,44.5975787785,0
0.041,46.8792716492,0
0.0412,48.8625350714,0
0.0414,50.6601612775,0
0.0416,51.9314237317,0
0.0418,52.9042567374,0
0.042,53.4658680619,0
0.0422,53.9898819756,0
0.0424,53.877089743,0
0.0426,53.6538551161,0
0.0428,53.1674386133,0
0.043,52.8290619157,0
0.0432,52.3802428237,0
0.0434,51.5202020506,0
0.0436,50.1737447747,0
0.0438,49.6121334501,0
0.044,49.6121334501,0
0.0442,48.9753273039,0
0.0444,48.3761185686,0
0.0446,47.7416622605,0
0.0448,47.1424535252,0
0.045,46.6184396115,0
0.0452,46.056828287,0
0.0454,44.8231632436,0
0.0456,43.5495509511,0
0.0458,42.2030936752,0
0.046,40.2574276639,0
0.0462,38.4245538851,0
0.0464,36.6645250899,0
0.0466,34.2700399866,0
0.0468,31.3515409696,0
0.047,28.2826523093,0
0.0472,25.4769455249,0
0.0474,22.5584465079,0
0.0476,19.1535309881,0
0.0478,15.7486154683,0
0.048,12.5669345754,0
0.0482,9.42520093158,0
0.0484,6.88032618491,0
0.0486,4.59863331416,0
0.0488,1.82817410241,0
0.049,-0.528713590029,0
0.0492,-2.32398995795,0
0.0494,-4.23440839659,0
0.0496,-5.69365790507,0
0.0498,-6.73933589424,0
0.05,-8.05054559751,0
0.0502,-9.3594054626,0
0.0504,-10.2570436466,0
0.0506,-10.8562523819,0
0.0508,-11.716293155,0
0.051,-12.9899054475,0
0.0512,-14.3739601343,0
0.0514,-15.7204174102,0
0.0516,-16.9940297026,0
0.0518,-18.2652921569,0
0.052,-19.7621390762,0
0.0522,-21.7078050875,0
0.0524,-23.5782762771,0
0.0526,-25.373552645,0
0.0528,-27.2463736728,0
0.053,-28.7432205922,0
0.0532,-30.312912495,0
0.0534,-32.2233309336,0
0.0536,-33.6825804421,0
0.0538,-34.5050238044,0
0.054,-35.3274671666,0
0.0542,-36.375494994,0
0.0544,-37.0123011402,0
0.0546,-37.5739124647,0
0.0548,-37.7595496808,0
0.055,-37.4235228213,0
0.0552,-36.8995089077,0
0.0554,-36.6739244426,0
0.0556,-36.6386768699,0
0.0558,-36.375494994,0
0.056,-36.0770655454,0
0.0562,-35.8890784912,0
0.0564,-35.8138836695,0
0.0566,-36.1875079398,0
0.0568,-36.5258846374,0
0.057,-36.7491192643,0
0.0572,-36.8619114968,0
0.0574,-37.1250933727,0
0.0576,-37.7219522699,0
0.0578,-38.3587584161,0
0.058,-38.9579671515,0
0.0582,-39.1083567949,0
0.0584,-38.8075775081,0
0.0586,-38.5091480595,0
0.0588,-38.0979263784,0
0.059,-37.3859254105,0
0.0592,-36.1522603671,0
0.0594,-34.6178160369,0
0.0596,-33.0081768851,0
0.0598,-31.1753031063,0
0.06,-29.3776769002,0
0.0602,-27.3215684945,0
0.0604,-24.7766937478,0
0.0606,-22.1566241795,0
0.0608,-19.7245416653,0
0.061,-17.4428487946,0
0.0612,-15.1588060857,0
0.0614,-13.2507374852,0
0.0616,-10.8186549711,0
0.0618,-8.53696210033,0
0.062,-6.70173848339,0
0.0622,-5.01925434801,0
0.0624,-3.11118574755,0
0.0626,-1.09032491455,0
0.0628,0.704951453372,0
0.063,2.57777248116,0
0.0632,4.41064625993,0
0.0634,6.2435200387,0
0.0636,8.22678346085,0
0.0638,10.5836711533,0
0.064,13.2789355433,0
0.0642,15.5606284141,0
0.0644,17.8070737122,0
0.0646,20.0135717612,0
0.0648,22.4456542754,0
0.065,25.1033212546,0
0.0652,27.5354037687,0
0.0654,29.48106978,0
0.0656,31.6147228456,0
0.0658,33.8212208946,0
0.066,35.7292894951,0
0.0662,37.7125529172,0
0.0664,38.7981781554,0
0.0666,39.5830241068,0
0.0668,40.3326224856,0
0.067,41.0046762045,0
0.0672,41.566287529,0
0.0674,42.015106621,0
0.0676,42.2030936752,0
0.0678,42.015106621,0
0.068,41.6414823507,0
0.0682,41.0046762045,0
0.0684,40.7062467559,0
0.0686,39.8838033936,0
0.0688,38.8357755663,0
0.069,38.0109823658,0
0.0692,37.8253451498,0
0.0694,37.524565863,0
0.0696,36.9653043766,0
0.0698,36.4788878738,0
0.07,35.6164972625,0
0.0702,34.8316513111,0
0.0704,34.2324425757,0
0.0706,33.5956364295,0
0.0708,32.8107904781,0
0.071,31.8379574725,0
0.0712,30.7147348234,0
0.0714,29.6314594234,0
0.0716,28.5834315961,0
0.0718,27.2346244819,0
0.072,25.3641532923,0
0.0722,23.4936821027,0
0.0724,21.5856135022,0
0.0726,19.7151423126,0
0.0728,17.8799186957,0
0.073,15.7862128792,0
0.0732,13.6149624028,0
0.0734,11.2204772995,0
0.0736,9.31240869904,0
0.0738,7.74036695802,0
0.074,5.98268800095,0
0.0742,4.29785402739,0
0.0744,2.72581228637,0
0.0746,1.1913679562,0
0.0748,-0.0798944980488,0
0.075,-1.0527275037,0
0.0752,-2.13835274189,0
0.0754,-3.48481001784,0
0.0756,-4.49524043433,0
0.0758,-5.28008638576,0
0.076,-5.91689253197,0
0.0762,-6.70173848339,0
0.0764,-7.78736372158,0
0.0766,-9.1361708357,0
0.0768,-10.5202255225,0
0.077,-11.7914879767,0
0.0772,-13.1379452527,0
0.0774,-14.5595973503,0
0.0776,-16.206833913,0
0.0778,-17.9292652974,0
0.078,-19.3885148059,0
0.0782,-20.7725694927,0
0.0784,-22.2318190012,0
0.0786,-23.9143031366,0
0.0788,-25.5615396993,0
0.079,-26.9455943861,0
0.0792,-27.9560248026,0
0.0794,-28.780818003,0
0.0796,-29.4904691327,0
0.0798,-30.312912495,0
0.08,-31.0249134629,0
0.0802,-31.3609403223,0
0.0804,-31.436135144,0
0.0806,-31.69931702,0
0.0808,-31.884954236,0
0.081,-32.0729412902,0
0.0812,-32.1857335228,0
0.0814,-32.1857335228,0
0.0816,-31.9977464686,0
0.0818,-31.9601490577,0
0.082,-32.2961759171,0
0.0822,-32.5969552039,0
0.0824,-32.5969552039,0
0.0826,-32.5217603822,0
0.0828,-32.6345526148,0
0.083,-32.8201898308,0
0.0832,-32.9329820634,0
0.0834,-32.9329820634,0
0.0836,-32.6721500256,0
0.0838,-32.2233309336,0
0.084,-31.6617196091,0
0.0842,-31.0249134629,0
0.0844,-30.2400675115,0
0.0846,-29.0416500407,0
0.0848,-27.5824005323,0
0.085,-26.0103587912,0
0.0852,-24.5887066936,0
0.0854,-23.167054596,0
0.0856,-21.2965834064,0
0.0858,-19.2381251625,0
0.086,-17.1796669187,0
0.0862,-15.083611264,0
0.0864,-13.1755426635,0
0.0866,-11.4178637064,0
0.0868,-9.58498992768,0
0.087,-7.74976631074,0
0.0872,-6.02968476451,0
0.0874,-4.49524043433,0
0.0876,-3.0735883367,0
0.0878,-1.61433882822,0
0.088,0.0328977344907,0
0.0882,1.67778445903,0
0.0884,3.17463137835,0
0.0886,4.29785402739,0
0.0888,5.42107667643,0
0.089,6.91792359576,0
0.0892,8.63800514198,0
0.0894,10.210046883,0
0.0896,11.7444912132,0
0.0898,13.4645727594,0
0.09,15.1118093221,0
0.0902,16.7590458848,0
0.0904,18.5919196636,0
0.0906,20.2015588155,0
0.0908,21.5856135022,0
0.091,22.8944733673,0
0.0912,24.3913202867,0
0.0914,26.2617914763,0
0.0916,27.5730011796,0
0.0918,28.2074574876,0
0.092,28.9570558663,0
0.0922,29.5562646017,0
0.0924,29.929888872,0
0.0926,30.2283183206,0
0.0928,30.6042924291,0
0.093,30.827527056,0
0.0932,30.7899296451,0
0.0934,30.5290976074,0
0.0936,30.378707964,0
0.0938,30.2659157314,0
0.094,29.7419018178,0
0.0942,29.0698480989,0
0.0944,28.7314714013,0
0.0946,28.7690688121,0
0.0948,28.8442636338,0
0.095,28.7314714013,0
0.0952,28.4330419527,0
0.0954,28.0970150932,0
0.0956,27.8338332173,0
0.0958,27.4978063579,0
0.096,27.0489872659,0
0.0962,26.6753629956,0
0.0964,26.1889464928,0
0.0966,25.7025299899,0
0.0968,25.1033212546,0
0.097,24.5041125192,0
0.0972,23.7568639786,0
0.0974,22.4832516862,0
0.0976,20.9864047669,0
0.0978,19.7903371343,0
0.098,18.8175041287,0
0.0982,17.5438918362,0
0.0984,16.1222397386,0
0.0986,14.700587641,0
0.0988,13.3917277759,0
0.099,12.230907716,0
0.0992,10.8844504401,0
0.0994,9.72363038018,0
0.0996,8.63800514198,0
0.0998,7.40434009858,0
0.1,6.2435200387,0
0.1002,5.49627149812,0
0.1004,4.70907570852,0
0.1006,3.62345047033,0
0.1008,2.42738283778,0
0.101,1.26656277789,0
0.1012,0.368924593931,0
0.1014,-0.491116179182,0
0.1016,-1.50154659568,0
0.1018,-2.81040646078,0
0.102,-4.15921357489,0
0.1022,-5.58086567253,0
0.1024,-6.92732294847,0
0.1026,-8.38657245695,0
0.1028,-9.99621160881,0
0.103,-11.5682533498,0
0.1032,-13.1003478418,0
0.1034,-14.4115575451,0
0.1036,-15.6076251777,0
0.1038,-16.9188348809,0
0.104,-18.4156818003,0
0.1042,-19.9501261304,0
0.1044,-21.2213885847,0
0.1046,-22.1566241795,0
0.1048,-22.8310277365,0
0.105,-23.5406788663,0
0.1052,-24.2150824233,0
0.1054,-24.7014989262,0
0.1056,-25.0751231964,0
0.1058,-25.4111500559,0
0.106,-25.8599691479,0
0.1062,-26.311138078,0
0.1064,-26.7975545808,0
0.1066,-26.9831917969,0
0.1068,-26.9455943861,0
0.107,-26.8703995644,0
0.1072,-26.9455943861,0
0.1074,-27.208776262,0
0.1076,-27.394413478,0
0.1078,-27.5448031214,0
0.108,-27.5072057106,0
0.1082,-27.4320108889,0
0.1084,-27.5072057106,0
0.1086,-27.4320108889,0
0.1088,-27.1335814403,0
0.109,-26.6095675266,0
0.1092,-25.9727613804,0
0.1094,-25.5615396993,0
0.1096,-25.1127206073,0
0.1098,-24.4007196394,0
0.11,-23.5030814554,0
0.1102,-22.4550536281,0
0.1104,-21.2213885847,0
0.1106,-20.0981659356,0
0.1108,-19.1629303408,0
0.111,-18.0021102809,0
0.1112,-16.6180555942,0
0.1114,-15.1588060857,0
0.1116,-13.9627384531,0
0.1118,-12.9147106258,0
0.112,-11.5682533498,0
0.1122,-10.1818488249,0
0.1124,-8.87298895977,0
0.1126,-7.67692132722,0
0.1128,-6.62889349987,0
0.113,-5.69365790507,0
0.1132,-4.57043525603,0
0.1134,-3.22397798009,0
0.1136,-1.87517086597,0
0.1138,-0.603908411722,0
0.114,0.444119415624,0
0.1142,1.45454983212,0
0.1144,2.83860451891,0
0.1146,4.10986697316,0
0.1148,5.30828444389,0
0.115,6.43150709293,0
0.1152,7.58997731464,0
0.1154,8.86358960706,0
0.1156,10.3228391155,0
0.1158,11.6316989806,0
0.116,12.679726808,0
0.1162,13.6149624028,0
0.1164,14.5126005867,0
0.1166,15.4854335924,0
0.1168,16.4582665981,0
0.117,17.3935021929,0
0.1172,18.2182953933,0
0.1174,18.7799067178,0
0.1176,19.2287258098,0
0.1178,19.9007795287,0
0.118,20.4623908532,0
0.1182,20.6879753183,0
0.1184,20.8007675508,0
0.1186,21.0991969994,0
0.1188,21.5856135022,0
0.119,21.9592377725,0
0.1192,22.1848222376,0
0.1194,22.295264632,0
0.1196,22.3704594537,0
0.1198,22.4456542754,0
0.12,22.5960439187,0
0.1202,22.9320707782,0
0.1204,23.1200578324,0
0.1206,23.1200578324,0
0.1208,23.1952526541,0
0.121,23.3432924593,0
0.1212,23.418487281,0
0.1214,23.3808898702,0
0.1216,23.0824604216,0
0.1218,22.7464335621,0
0.122,22.5960439187,0
0.1222,22.4456542754,0
0.1224,22.1472248268,0
0.1226,21.7736005565,0
0.1228,20.9864047669,0
0.123,20.314351048,0
0.1232,19.6399474909,0
0.1234,18.927946523,0
0.1236,18.2558928042,0
0.1238,17.4686970146,0
0.124,16.5334614197,0
0.1242,15.6734206466,0
0.1244,14.8509772844,0
0.1246,13.9885866731,0
0.1248,13.0533510783,0
0.125,11.8948808566,0
0.1252,10.8468530292,0
0.1254,10.0972546505,0
0.1256,9.1996164665,0
0.1258,8.22678346085,0
0.126,7.14115822266,0
0.1262,5.9450905901,0
0.1264,4.89706276276,0
0.1266,3.9242297571,0
0.1268,2.83860451891,0
0.127,1.64253688636,0
0.1272,0.519314237317,0
0.1274,-0.754298055108,0
0.1276,-1.98796309851,0
0.1278,-3.11118574755,0
0.128,-4.26965596926,0
0.1282,-5.54326826168,0
0.1284,-6.88972553762,0
0.1286,-8.1257404192,0
0.1288,-9.1361708357,0
0.129,-10.0714064305,0
0.1292,-11.1194342579,0
0.1294,-12.3906967121,0
0.1296,-13.4763219503,0
0.1298,-14.4115575451,0
0.13,-15.3091957291,0
0.1302,-16.1316390913,0
0.1304,-16.9188348809,0
0.1306,-17.6660834215,0
0.1308,-18.4156818003,0
0.131,-18.9772931248,0
0.1312,-19.4261122168,0
0.1314,-20.0981659356,0
0.1316,-20.8101669035,0
0.1318,-21.4093756389,0
0.132,-21.82059732,0
0.1322,-22.0438319469,0
0.1324,-22.2318190012,0
0.1326,-22.5302484498,0
0.1328,-22.9414701309,0
0.133,-23.2422494177,0
0.1332,-23.3550416502,0
0.1334,-23.4278866337,0
0.1336,-23.5030814554,0
0.1338,-23.5030814554,0
0.134,-23.3926390611,0
0.1342,-23.167054596,0
0.1344,-22.7558329148,0
0.1346,-22.3070138229,0
0.1348,-21.9686371252,0
0.135,-21.6702076767,0
0.1352,-21.2589859955,0
0.1354,-20.6221798493,0
0.1356,-19.7245416653,0
0.1358,-18.9020983031,0
0.136,-18.1900973352,0
0.1362,-17.3676539729,0
0.1364,-16.3948209673,0
0.1366,-15.4971827833,0
0.1368,-14.6723895828,0
0.137,-13.8875436314,0
0.1372,-13.0651002692,0
0.1374,-12.2027096579,0
0.1376,-11.1194342579,0
0.1378,-9.92101678712,0
0.138,-8.87298895977,0
0.1382,-8.16333783005,0
0.1384,-7.45133686214,0
0.1386,-6.59129608903,0
0.1388,-5.61846308337,0
0.139,-4.64563007772,0
0.1392,-3.71039448291,0
0.1394,-2.77280904993,0
0.1396,-1.68953364991,0
0.1398,-0.566311000875,0
0.14,0.556911648164,0
0.1402,1.49214724297,0
0.1404,2.50257765947,0
0.1406,3.40021584343,0
0.1408,4.48584108162,0
0.141,5.68190871418,0
0.1412,6.88032618491,0
0.1414,7.92835401226,0
0.1416,8.82599219622,0
0.1418,9.61083814764,0
0.142,10.5836711533,0
0.1422,11.5565041589,0
0.1424,12.3436999485,0
0.1426,13.0157536674,0
0.1428,13.6901572245,0
0.143,14.4021581924,0
0.1432,15.149406733,0
0.1434,15.7110180575,0
0.1436,16.1974345603,0
0.1438,16.4958640089,0
0.144,16.8342407065,0
0.1442,17.2830597985,0
0.1444,17.9175161065,0
0.1446,18.4039326094,0
0.1448,18.6671144853,0
0.145,18.8903491122,0
0.1452,19.2663232207,0
0.1454,19.6399474909,0
0.1456,20.0135717612,0
0.1458,20.1263639938,0
0.146,20.3495986207,0
0.1462,20.5375856749,0
0.1464,20.8007675508,0
0.1466,21.0615995886,0
0.1468,21.1367944103,0
0.147,20.948807356,0
0.1472,20.6879753183,0
0.1474,20.4623908532,0
0.1476,20.2767536372,0
0.1478,20.0887665829,0
0.148,19.6775449018,0
0.1482,19.1535309881,0
0.1484,18.6295170744,0
0.1486,18.0679057499,0
0.1488,17.3935021929,0
0.149,16.6086562414,0
0.1492,15.7486154683,0
0.1494,14.9238222679,0
0.1496,14.2893659598,0
0.1498,13.6525598136,0
0.15,12.8677138622,0
0.1502,11.9700756783,0
0.1504,10.9596452618,0
0.1506,9.9868122561,0
0.1508,9.16201905566,0
0.151,8.48996533678,0
0.1512,7.77796436887,0
0.1514,6.84272877406,0
0.1516,5.86989576841,0
0.1518,5.0098549953,0
0.152,4.18506179485,0
0.1522,3.2122287892,0
0.1524,2.05375856749,0
0.1526,1.00573074014,0
0.1528,-0.00469967635581,0
0.153,-0.902337860316,0
0.1532,-1.68953364991,0
0.1534,-2.69996406641,0
0.1536,-3.85843428812,0
0.1538,-4.98165693716,0
0.154,-6.1048795862,0
0.1542,-7.07771259185,0
0.1544,-7.93775336497,0
0.1546,-8.83539154893,0
0.1548,-9.73302973289,0
