"Latest: Time (s)","Latest: Z-Axis Acceleration (m/s²)","Latest: Potential (mV)"
0,-52.3543946038,10.1018193271
0.0002,-57.1433648103,10.4785771575
0.0004,-60.7339175462,10.8553349879
0.0006,-61.8195427844,11.6088506486
0.0008,-64.6628469796,11.985608479
0.001,-67.5085010131,12.3623663094
0.0012,-68.4437366079,12.7391241398
0.0014,-69.6398042404,12.7391241398
0.0016,-69.0429453432,13.1158819702
0.0018,-67.1701243155,13.1158819702
0.002,-65.3372505367,12.7391241398
0.0022,-64.5148071744,12.3623663094
0.0024,-63.1307524876,11.985608479
0.0026,-62.0451272494,11.6088506486
0.0028,-61.2226838872,11.6088506486
0.003,-61.4459185141,11.2320928182
0.0032,-62.4187515197,10.4785771575
0.0034,-64.9636262664,9.74860886112
0.0036,-65.1140159098,9.37185103074
0.0038,-64.813236623,8.99509320036
0.004,-65.9364592721,8.24157753959
0.0042,-64.1764304768,7.48806187883
0.0044,-60.8091123679,7.11130404845
0.0046,-56.3561690207,7.11130404845
0.0048,-52.6904214632,6.35778838769
0.005,-47.9742962401,5.60427272692
0.0052,-43.1477286227,5.60427272692
0.0054,-36.1875079398,5.22751489654
0.0056,-28.6304283596,4.87430443056
0.0058,-20.5469850276,4.49754660018
0.006,-8.72259931639,4.49754660018
0.0062,2.23939578354,4.49754660018
0.0064,11.6316989806,4.49754660018
0.0066,19.4895578476,4.49754660018
0.0068,26.0385568494,4.49754660018
0.007,31.6875678291,4.1207887698
0.0072,36.2909008196,4.49754660018
0.0074,40.219830253,4.49754660018
0.0076,43.6623431837,4.87430443056
0.0078,46.5432447898,5.22751489654
0.008,48.9753273039,5.60427272692
0.0082,51.1089803695,5.60427272692
0.0084,52.8290619157,5.9810305573
0.0086,54.325908835,6.35778838769
0.0088,55.6371185383,6.73454621807
0.009,56.7203939383,7.11130404845
0.0092,57.6556295331,7.48806187883
0.0094,58.4804227336,7.86481970921
0.0096,59.1172288798,8.24157753959
0.0098,59.714087777,8.61833536997
0.01,60.2756991015,8.99509320036
0.0102,60.6493233718,9.37185103074
0.0104,61.0252974802,9.37185103074
0.0106,61.3237269288,10.1018193271
0.0108,61.5845589666,10.1018193271
0.011,61.8101434316,10.4785771575
0.0112,61.9981304859,10.4785771575
0.0114,62.2213651128,10.4785771575
0.0116,62.2965599345,10.4785771575
0.0118,62.4469495779,10.4785771575
0.012,62.5597418104,10.4785771575
0.0122,62.6701842048,10.4785771575
0.0124,62.7077816156,10.4785771575
0.0126,62.7829764373,10.4785771575
0.0128,62.858171259,10.4785771575
0.013,62.8957686698,10.4785771575
0.0132,62.5597418104,10.1018193271
0.0134,59.939672242,10.1018193271
0.0136,56.161132452,9.74860886112
0.0138,52.3802428237,9.37185103074
0.014,46.8064266657,8.99509320036
0.0142,41.7166771724,8.99509320036
0.0144,37.7877477389,8.99509320036
0.0146,34.157247754,8.61833536997
0.0148,29.3306801366,8.61833536997
0.015,23.9049037838,8.24157753959
0.0152,20.2767536372,7.86481970921
0.0154,16.6086562414,7.48806187883
0.0156,12.7173242188,7.48806187883
0.0158,9.53564332594,7.48806187883
0.016,9.04922682312,7.48806187883
0.0162,8.45236792593,7.48806187883
0.0164,6.39390968208,7.48806187883
0.0166,5.19549221135,7.11130404845
0.0168,4.85946535191,7.11130404845
0.017,3.58820289766,7.11130404845
0.0172,0.892938507604,7.48806187883
0.0174,-1.01513009286,7.48806187883
0.0176,-3.18638056924,7.48806187883
0.0178,-6.70173848339,7.48806187883
0.018,-10.5954203442,7.48806187883
0.0182,-14.6723895828,7.48806187883
0.0184,-19.4637096276,7.48806187883
0.0186,-24.3278746559,7.48806187883
0.0188,-28.8160655757,7.48806187883
0.019,-32.9705794742,7.48806187883
0.0192,-36.7867166751,7.48806187883
0.0194,-40.2668270166,7.48806187883
0.0196,-43.5589503038,7.48806187883
0.0198,-46.0662276397,7.11130404845
0.02,-47.7134642024,7.11130404845
0.0202,-49.0599214783,7.11130404845
0.0204,-48.5735049755,6.73454621807
0.0206,-46.8534234293,6.35778838769
0.0208,-44.644575542,5.9810305573
0.021,-41.8388687576,5.9810305573
0.0212,-37.9851341459,5.60427272692
0.0214,-33.905815069,5.22751489654
0.0216,-30.5760943709,4.49754660018
0.0218,-26.9079969752,4.49754660018
0.022,-22.8310277365,4.1207887698
0.0222,-18.9020983031,3.36727310903
0.0224,-15.4219879616,2.99051527865
0.0226,-12.4282941229,2.61375744827
0.0228,-9.58498992768,2.23699961789
0.023,-7.41373945129,1.48348395713
0.0232,-6.02968476451,1.10672612675
0.0234,-5.87929512112,0.353210465983
0.0236,-5.24248897491,0
0.0238,-4.49524043433,0
0.024,-5.0944491697,0
0.0242,-6.1048795862,0
0.0244,-6.06728217535,0
0.0246,-7.26334980791,0
0.0248,-10.1090038414,0
0.025,-13.3259323069,0
0.0252,-15.3091957291,0
0.0254,-16.4324183781,0
0.0256,-16.0564442696,0
0.0258,-14.9731688696,0
0.026,-12.5410863555,0
0.0262,-9.3594054626,0
0.0264,-7.41373945129,0
0.0266,-6.3281142131,0
0.0268,-5.16964399139,0
0.027,-3.52240742868,0
0.0272,-2.73756147726,0
0.0274,-2.96079610416,0
0.0276,-2.66236665557,0
0.0278,-1.42635177399,0
0.028,-1.83757345512,0
0.0282,-4.53283784518,0
0.0284,-8.01294818666,0
0.0286,-12.3530993013,0
0.0288,-17.6660834215,0
0.029,-22.4926510389,0
0.0292,-26.9079969752,0
0.0294,-30.4257047275,0
0.0296,-33.2690089228,0
0.0298,-36.5258846374,0
0.03,-38.9203697407,0
0.0302,-40.602853876,0
0.0304,-41.9140635793,0
0.0306,-43.1477286227,0
0.0308,-42.9244939958,0
0.031,-41.0540228062,0
0.0312,-38.0979263784,0
0.0314,-34.7282584313,0
0.0316,-31.6241221983,0
0.0318,-28.1816092676,0
0.032,-25.1503180181,0
0.0322,-22.4550536281,0
0.0324,-19.9125287196,0
0.0326,-18.3780843894,0
0.0328,-16.9188348809,0
0.033,-15.3467931399,0
0.0332,-14.634792172,0
0.0334,-15.1212086748,0
0.0336,-16.021196697,0
0.0338,-17.7412782432,0
0.034,-20.0605685248,0
0.0342,-22.0438319469,0
0.0344,-23.6534710988,0
0.0346,-24.9999283747,0
0.0348,-26.311138078,0
0.035,-27.657595354,0
0.0352,-27.84323257,0
0.0354,-27.5824005323,0
0.0356,-27.394413478,0
0.0358,-26.4967752941,0
0.036,-24.7014989262,0
0.0362,-21.7078050875,0
0.0364,-18.227694746,0
0.0366,-14.2235704909,0
0.0368,-9.77062714373,0
0.037,-5.35528120745,0
0.0372,-1.68953364991,0
0.0374,1.37935501043,0
0.0376,5.08504981699,0
0.0378,8.30197828254,0
0.038,10.6212685641,0
0.0382,12.5669345754,0
0.0384,14.0637814948,0
0.0386,14.9990170896,0
0.0388,14.7757824627,0
0.039,13.5773649919,0
0.0392,12.0805180726,0
0.0394,10.6964633858,0
0.0396,9.23721387735,0
0.0398,7.70276954718,0
0.04,6.57954689814,0
0.0402,6.05788282264,0
0.0404,5.9450905901,0
0.0406,5.45867408728,0
0.0408,5.42107667643,0
0.041,6.72993654152,0
0.0412,8.22678346085,0
0.0414,9.87402002356,0
0.0416,12.5293371646,0
0.0418,15.7862128792,0
0.042,18.8175041287,0
0.0422,21.211989232,0
0.0424,23.6440717461,0
0.0426,26.0761542602,0
0.0428,28.2074574876,0
0.043,29.2554853149,0
0.0432,29.929888872,0
0.0434,30.9403192885,0
0.0436,31.1283063427,0
0.0438,30.0050836937,0
0.044,28.2450548984,0
0.0442,26.6001681739,0
0.0444,24.5041125192,0
0.0446,21.6608083239,0
0.0448,19.5647526692,0
0.045,18.2182953933,0
0.0452,16.4958640089,0
0.0454,14.7757824627,0
0.0456,13.8781442787,0
0.0458,13.8405468679,0
0.046,13.7653520462,0
0.0462,13.802949457,0
0.0464,14.2141711382,0
0.0466,15.7110180575,0
0.0468,17.6942814796,0
0.047,19.2663232207,0
0.0472,20.8736125343,0
0.0474,22.4832516862,0
0.0476,23.6816691569,0
0.0478,24.4665151084,0
0.048,24.8401393786,0
0.0482,25.0657238437,0
0.0484,24.8777367895,0
0.0486,23.9049037838,0
0.0488,22.4080568645,0
0.049,21.0615995886,0
0.0492,19.0783361664,0
0.0494,16.1598371495,0
0.0496,13.1661433108,0
0.0498,10.2852417047,0
0.05,7.85315919056,0
0.0502,5.68190871418,0
0.0504,3.24982620004,0
0.0506,1.22896536705,0
0.0508,-0.267881552281,0
0.051,-1.68953364991,0
0.0512,-2.96079610416,0
0.0514,-3.2968229636,0
0.0516,-3.52240742868,0
0.0518,-3.89603169897,0
0.052,-3.71039448291,0
0.0522,-3.14878315839,0
0.0524,-2.69996406641,0
0.0526,-3.14878315839,0
0.0528,-3.97122652066,0
0.053,-4.49524043433,0
0.0532,-5.43047602914,0
0.0534,-6.62889349987,0
0.0536,-7.93775336497,0
0.0538,-9.58498992768,0
0.054,-11.8666827984,0
0.0542,-14.2611679017,0
0.0544,-16.6180555942,0
0.0546,-19.1629303408,0
0.0548,-21.7078050875,0
0.055,-24.3278746559,0
0.0552,-26.4591778832,0
0.0554,-27.5824005323,0
0.0556,-28.7056231813,0
0.0558,-29.7888985813,0
0.056,-30.5008995492,0
0.0562,-30.8745238195,0
0.0564,-30.9121212304,0
0.0566,-30.3881073167,0
0.0568,-29.3024820785,0
0.057,-28.0688170351,0
0.0572,-26.9831917969,0
0.0574,-25.7495267535,0
0.0576,-24.2526798342,0
0.0578,-22.9062225582,0
0.058,-22.3070138229,0
0.0582,-21.7829999092,0
0.0584,-21.2213885847,0
0.0586,-20.5093876168,0
0.0588,-19.7245416653,0
0.059,-19.5365546111,0
0.0592,-19.6869442545,0
0.0594,-19.8749313087,0
0.0596,-20.0981659356,0
0.0598,-20.5469850276,0
0.06,-20.6597772602,0
0.0602,-20.3613478116,0
0.0604,-20.2109581682,0
0.0606,-19.6493468437,0
0.0608,-18.7517086597,0
0.061,-17.3676539729,0
0.0612,-15.9835992861,0
0.0614,-15.083611264,0
0.0616,-13.6619591663,0
0.0618,-11.530655939,0
0.062,-9.17141840837,0
0.0622,-7.07771259185,0
0.0624,-5.0944491697,0
0.0626,-2.88560128247,0
0.0628,-0.902337860316,0
0.063,0.556911648164,0
0.0632,1.86577151326,0
0.0634,3.47541066512,0
0.0636,4.44824367078,0
0.0638,4.82186794106,0
0.064,5.68190871418,0
0.0642,6.54429932547,0
0.0644,6.69233913068,0
0.0646,6.28111744954,0
0.0648,5.90749317926,0
0.065,5.98268800095,0
0.0652,6.09313039531,0
0.0654,6.20592262785,0
0.0656,6.50670191462,0
0.0658,7.1787556335,0
0.066,7.89075660141,0
0.0662,8.52756274762,0
0.0664,9.31240869904,0
0.0666,10.3228391155,0
0.0668,11.6316989806,0
0.067,12.8677138622,0
0.0672,14.2141711382,0
0.0674,16.1222397386,0
0.0676,17.8070737122,0
0.0678,18.8903491122,0
0.068,19.6399474909,0
0.0682,20.3871960315,0
0.0684,21.0615995886,0
0.0686,21.397626448,0
0.0688,21.5480160914,0
0.069,21.6984057348,0
0.0692,22.0344325942,0
0.0694,21.8088481291,0
0.0696,21.0615995886,0
0.0698,20.4247934424,0
0.07,19.7903371343,0
0.0702,19.0031413447,0
0.0704,18.0679057499,0
0.0706,17.844671123,0
0.0708,18.1431005716,0
0.071,18.0679057499,0
0.0712,17.9175161065,0
0.0714,18.2182953933,0
0.0716,18.5167248419,0
0.0718,18.4039326094,0
0.072,18.4791274311,0
0.0722,19.0031413447,0
0.0724,19.6023500801,0
0.0726,20.3495986207,0
0.0728,20.5751830857,0
0.073,20.6879753183,0
0.0732,20.6879753183,0
0.0734,20.0511691721,0
0.0736,19.191128399,0
0.0738,18.293490215,0
0.074,17.3935021929,0
0.0742,16.272629382,0
0.0744,15.0366145004,0
0.0746,13.6525598136,0
0.0748,12.0429206618,0
0.075,10.0972546505,0
0.0752,7.89075660141,0
0.0754,5.98268800095,0
0.0756,4.44824367078,0
0.0758,2.9889941623,0
0.076,1.67778445903,0
0.0762,0.406522004778,0
0.0764,-0.716700644261,0
0.0766,-1.53914400653,0
0.0768,-2.73756147726,0
0.077,-3.93362910982,0
0.0772,-4.72082489941,0
0.0774,-5.24248897491,0
0.0776,-5.76650288858,0
0.0778,-6.1048795862,0
0.078,-6.44090644564,0
0.0782,-7.18815498622,0
0.0784,-8.27378022441,0
0.0786,-9.43460028429,0
0.0788,-10.3322384683,0
0.079,-11.4178637064,0
0.0792,-12.8395158041,0
0.0794,-13.9627384531,0
0.0796,-15.0107662805,0
0.0798,-16.1692365022,0
0.08,-17.5156937781,0
0.0802,-18.8645008922,0
0.0804,-20.2861529899,0
0.0806,-21.4822206224,0
0.0808,-22.3822086446,0
0.081,-22.8686251474,0
0.0812,-22.9062225582,0
0.0814,-23.2046520068,0
0.0816,-23.5406788663,0
0.0818,-23.3550416502,0
0.082,-23.0542623634,0
0.0822,-22.8310277365,0
0.0824,-22.4550536281,0
0.0826,-21.7829999092,0
0.0828,-20.9229591361,0
0.083,-20.0229711139,0
0.0832,-19.0501381083,0
0.0834,-18.3028895677,0
0.0836,-17.9668627083,0
0.0838,-17.9668627083,0
0.084,-17.6284860107,0
0.0842,-16.9940297026,0
0.0844,-16.5076131998,0
0.0846,-16.1316390913,0
0.0848,-15.9460018753,0
0.085,-15.6828199993,0
0.0852,-15.3091957291,0
0.0854,-15.1964034965,0
0.0856,-15.1964034965,0
0.0858,-15.0107662805,0
0.086,-14.4491549559,0
0.0862,-13.737153988,0
0.0864,-12.6515287498,0
0.0866,-11.3802662956,0
0.0868,-10.3698358791,0
0.087,-9.54739251683,0
0.0872,-8.68500190554,0
0.0874,-7.45133686214,0
0.0876,-5.99208735366,0
0.0878,-4.79366988293,0
0.088,-3.74799189376,0
0.0882,-2.51197701218,0
0.0884,-0.977532682009,0
0.0886,-0.00469967635581,0
0.0888,0.519314237317,0
0.089,1.04332815099,0
0.0892,1.71538186987,0
0.0894,2.2017983727,0
0.0896,2.68821487552,0
0.0898,3.47541066512,0
0.09,4.18506179485,0
0.0902,4.2226592057,0
0.0904,4.33545143824,0
0.0906,4.9346601736,0
0.0908,5.68190871418,0
0.091,6.09313039531,0
0.0912,6.43150709293,0
0.0914,7.29154786604,0
0.0916,8.37717310424,0
0.0918,9.42520093158,0
0.092,10.1348520613,0
0.0922,10.9220478509,0
0.0924,11.8196860349,0
0.0926,12.7925190405,0
0.0928,13.6525598136,0
0.093,14.6629902301,0
0.0932,15.7862128792,0
0.0934,16.3854216145,0
0.0936,16.6086562414,0
0.0938,17.0950727443,0
0.094,17.5438918362,0
0.0942,17.6566840688,0
0.0944,17.5814892471,0
0.0946,17.5062944254,0
0.0948,17.7318788905,0
0.095,17.9175161065,0
0.0952,17.8070737122,0
0.0954,17.3582546202,0
0.0956,17.0574753334,0
0.0958,16.8342407065,0
0.096,16.4958640089,0
0.0962,16.4206691872,0
0.0964,16.5710588306,0
0.0966,16.90708569,0
0.0968,16.7590458848,0
0.097,16.6086562414,0
0.0972,16.90708569,0
0.0974,16.9822805117,0
0.0976,16.5334614197,0
0.0978,16.2350319712,0
0.098,16.3102267928,0
0.0982,16.3478242037,0
0.0984,16.1598371495,0
0.0986,15.7486154683,0
0.0988,15.2621989655,0
0.099,14.6253928193,0
0.0992,13.6525598136,0
0.0994,12.6421293971,0
0.0996,11.7444912132,0
0.0998,10.8468530292,0
0.1,9.87402002356,0
0.1002,8.82599219622,0
0.1004,7.89075660141,0
0.1006,6.72993654152,0
0.1008,5.38347926558,0
0.101,4.03702198964,0
0.1012,2.95139675145,0
0.1014,2.01616115664,0
0.1016,1.15612038353,0
0.1018,0.444119415624,0
0.102,-0.267881552281,0
0.1022,-1.09032491455,0
0.1024,-1.87517086597,0
0.1026,-2.96079610416,0
0.1028,-3.89603169897,0
0.103,-4.45764302349,0
0.1032,-4.94405952631,0
0.1034,-5.46807343999,0
0.1036,-6.06728217535,0
0.1038,-6.66649091072,0
0.104,-7.48893427299,0
0.1042,-8.49936468949,0
0.1044,-9.47219769514,0
0.1046,-10.2570436466,0
0.1048,-10.9690446145,0
0.105,-11.7538905659,0
0.1052,-12.3155018904,0
0.1054,-12.8019183932,0
0.1056,-13.5139193611,0
0.1058,-14.2611679017,0
0.106,-14.9731688696,0
0.1062,-15.5700277668,0
0.1064,-15.9460018753,0
0.1066,-16.0564442696,0
0.1068,-16.1316390913,0
0.107,-16.021196697,0
0.1072,-15.9460018753,0
0.1074,-15.9084044644,0
0.1076,-15.7204174102,0
0.1078,-15.7204174102,0
0.108,-15.7956122319,0
0.1082,-15.5700277668,0
0.1084,-15.1212086748,0
0.1086,-14.5971947612,0
0.1088,-14.3739601343,0
0.109,-14.1107782583,0
0.1092,-14.000335864,0
0.1094,-14.0731808475,0
0.1096,-14.1107782583,0
0.1098,-13.8875436314,0
0.11,-13.6243617555,0
0.1102,-13.5867643447,0
0.1104,-13.4011271286,0
0.1106,-12.9899054475,0
0.1108,-12.5786837663,0
0.111,-12.4658915338,0
0.1112,-12.4282941229,0
0.1114,-12.2403070687,0
0.1116,-11.6786957442,0
0.1118,-10.9314472036,0
0.112,-10.1818488249,0
0.1122,-9.47219769514,0
0.1124,-8.72259931639,0
0.1126,-8.08814300835,0
0.1128,-7.48893427299,0
0.113,-6.73933589424,0
0.1132,-5.99208735366,0
0.1134,-5.24248897491,0
0.1136,-4.64563007772,0
0.1138,-3.78323946643,0
0.114,-2.81040646078,0
0.1142,-1.98796309851,0
0.1144,-1.68953364991,0
0.1146,-1.57674141738,0
0.1148,-1.09032491455,0
0.115,-0.453518768336,0
0.1152,0.0704951453372,0
0.1154,0.481716826471,0
0.1156,1.11852297268,0
0.1158,1.75297928072,0
0.116,2.09135597834,0
0.1162,2.65061746468,0
0.1164,3.28742361089,0
0.1166,3.84903493541,0
0.1168,4.18506179485,0
0.117,4.82186794106,0
0.1172,6.0202854118,0
0.1174,7.0307158283,0
0.1176,7.58997731464,0
0.1178,8.03879640662,0
0.118,8.71319996368,0
0.1182,9.42520093158,0
0.1184,10.0220598288,0
0.1186,10.5836711533,0
0.1188,11.2204772995,0
0.119,11.8196860349,0
0.1192,12.3061025377,0
0.1194,12.6045319863,0
0.1196,13.0157536674,0
0.1198,13.0909484891,0
0.12,12.9429086839,0
0.1202,12.9429086839,0
0.1204,13.2789355433,0
0.1206,13.7277546353,0
0.1208,13.8405468679,0
0.121,13.6901572245,0
0.1212,13.5397675811,0
0.1214,13.5773649919,0
0.1216,13.5397675811,0
0.1218,13.4293251867,0
0.122,13.3917277759,0
0.1222,13.5397675811,0
0.1224,13.7653520462,0
0.1226,13.8405468679,0
0.1228,13.7653520462,0
0.123,13.6901572245,0
0.1232,13.2789355433,0
0.1234,12.7173242188,0
0.1236,12.5293371646,0
0.1238,12.5293371646,0
0.124,12.3061025377,0
0.1242,11.7444912132,0
0.1244,11.2204772995,0
0.1246,10.7716582075,0
0.1248,10.210046883,0
0.125,9.35000610989,0
0.1252,8.52756274762,0
0.1254,7.92835401226,0
0.1256,7.32914527689,0
0.1258,6.69233913068,0
0.126,6.28111744954,0
0.1262,5.75710353587,0
0.1264,4.97225758445,0
0.1266,4.10986697316,0
0.1268,3.36261843258,0
0.127,2.87620192976,0
0.1272,2.38978542693,0
0.1274,1.71538186987,0
0.1276,1.26656277789,0
0.1278,0.892938507604,0
0.128,0.406522004778,0
0.1282,-0.155089319742,0
0.1284,-0.902337860316,0
0.1286,-1.57674141738,0
0.1288,-2.21354756359,0
0.129,-2.73756147726,0
0.1292,-3.14878315839,0
0.1294,-3.59760225037,0
0.1296,-4.12161616405,0
0.1298,-4.83126729378,0
0.13,-5.54326826168,0
0.1302,-6.29051680226,0
0.1304,-6.88972553762,0
0.1306,-7.37614204045,0
0.1308,-7.90015595412,0
0.131,-8.23618281356,0
0.1312,-8.42416986779,0
0.1314,-8.87298895977,0
0.1316,-9.32180805175,0
0.1318,-9.77062714373,0
0.132,-10.1818488249,0
0.1322,-10.4450307008,0
0.1324,-10.5578229333,0
0.1326,-10.5578229333,0
0.1328,-10.5578229333,0
0.133,-10.6306679168,0
0.1332,-10.7434601494,0
0.1334,-10.8562523819,0
0.1336,-11.0066420253,0
0.1338,-11.2298766522,0
0.134,-11.1546818305,0
0.1342,-11.081836847,0
0.1344,-10.9690446145,0
0.1346,-10.9690446145,0
0.1348,-10.9690446145,0
0.135,-10.9690446145,0
0.1352,-11.1194342579,0
0.1354,-11.3050714739,0
0.1356,-11.2674740631,0
0.1358,-11.1194342579,0
0.136,-11.0066420253,0
0.1362,-10.8186549711,0
0.1364,-10.4826281116,0
0.1366,-10.3322384683,0
0.1368,-10.2946410574,0
0.137,-10.144251414,0
0.1372,-9.77062714373,0
0.1374,-9.32180805175,0
0.1376,-8.98578119231,0
0.1378,-8.46176727864,0
0.138,-7.93775336497,0
0.1382,-7.3385446296,0
0.1384,-6.92732294847,0
0.1386,-6.59129608903,0
0.1388,-6.21532198056,0
0.139,-5.76650288858,0
0.1392,-5.24248897491,0
0.1394,-4.68322748857,0
0.1396,-4.04642134235,0
0.1398,-3.44721260699,0
0.14,-3.14878315839,0
0.1402,-2.88560128247,0
0.1404,-2.51197701218,0
0.1406,-1.91276827682,0
0.1408,-1.42635177399,0
0.141,-1.09032491455,0
0.1412,-0.566311000875,0
0.1414,0.218534950545,0
0.1416,0.855341096758,0
0.1418,1.1913679562,0
0.142,1.60493947551,0
0.1422,2.09135597834,0
0.1424,2.76340969722,0
0.1426,3.32502102174,0
0.1428,4.147464384,0
0.143,5.0098549953,0
0.1432,5.60671389248,0
0.1434,5.86989576841,0
0.1436,6.39390968208,0
0.1438,7.0307158283,0
0.144,7.47953492028,0
0.1442,7.70276954718,0
0.1444,8.07639381746,0
0.1446,8.71319996368,0
0.1448,9.2748112882,0
0.145,9.50039575328,0
0.1452,9.61083814764,0
0.1454,9.79882520187,0
0.1456,9.79882520187,0
0.1458,9.83642261272,0
0.146,10.1724494722,0
0.1462,10.5084763316,0
0.1464,10.6964633858,0
0.1466,10.7340607967,0
0.1468,10.8092556184,0
0.147,11.0324902453,0
0.1472,11.0700876561,0
0.1474,10.8844504401,0
0.1476,10.7340607967,0
0.1478,10.8468530292,0
0.148,11.0700876561,0
0.1482,11.1828798887,0
0.1484,11.107685067,0
0.1486,10.8844504401,0
0.1488,10.658865975,0
0.149,10.3980339372,0
0.1492,10.0220598288,0
0.1494,9.87402002356,0
0.1496,9.68603296933,0
0.1498,9.31240869904,0
0.15,8.93878442876,0
0.1502,8.71319996368,0
0.1504,8.45236792593,0
0.1506,7.81556177972,0
0.1508,6.99311841745,0
0.151,6.43150709293,0
0.1512,6.20592262785,0
0.1514,5.90749317926,0
0.1516,5.49627149812,0
0.1518,5.08504981699,0
0.152,4.63388088683,0
0.1522,4.03702198964,0
0.1524,3.51300807597,0
