Latest: Time (s),Latest: Z-Axis Acceleration (m/s²),Latest: Potential (mV)
0,-44.16539157,10.17246142
0.0002,-50.59640522,10.54921925
0.0004,-56.13248117,11.30273491
0.0006,-60.98114121,12.05625057
0.0008,-63.38709691,12.78621887
0.001,-65.31315847,12.78621887
0.0012,-68.54703962,12.78621887
0.0014,-71.19510407,12.78621887
0.0016,-73.32652574,13.1629767
0.0018,-75.18341338,13.1629767
0.002,-76.59283217,13.1629767
0.0022,-77.76230389,13.1629767
0.0024,-78.17518578,12.78621887
0.0026,-76.00917715,12.78621887
0.0028,-72.19164097,12.05625057
0.003,-69.33821643,11.67949274
0.0032,-63.2854977,11.30273491
0.0034,-55.68501232,10.92597708
0.0036,-47.2263379,10.54921925
0.0038,-38.56014168,10.17246142
0.004,-30.1684795,9.41894576
0.0042,-22.74092895,8.665430099
0.0044,-16.27532833,8.288672268
0.0046,-10.77383934,7.558703972
0.0048,-3.826182912,7.181946142
0.005,7.65885088,6.428430481
0.0052,17.80363981,6.051672651
0.0054,25.84943235,5.29815699
0.0056,32.52255475,4.921399159
0.0058,37.85110892,4.167883499
0.006,42.18528787,4.167883499
0.0062,44.93495152,3.814673033
0.0064,45.4515943,3.437915202
0.0066,46.72482692,3.061157372
0.0068,49.47449057,2.684399541
0.007,51.67508616,2.307641711
0.0072,53.46496156,2.307641711
0.0074,55.01056652,2.307641711
0.0076,56.24921218,1.930883881
0.0078,57.2133238,1.930883881
0.008,57.96991364,1.930883881
0.0082,57.96991364,1.930883881
0.0084,57.96991364,1.930883881
0.0086,57.96991364,1.930883881
0.0088,57.96991364,1.930883881
0.009,57.96991364,1.930883881
0.0092,57.96991364,1.930883881
0.0094,57.96991364,1.930883881
0.0096,57.96991364,2.307641711
0.0098,57.96991364,2.307641711
0.01,57.96991364,2.307641711
0.0102,57.96991364,2.307641711
0.0104,57.07497594,2.307641711
0.0106,39.43346253,2.307641711
0.0108,16.94328908,2.684399541
0.011,-0.490702554,3.061157372
0.0112,-13.214382,3.061157372
0.0114,-25.90563617,3.814673033
0.0116,-35.87749028,3.814673033
0.0118,-33.02406573,4.167883499
0.012,-16.13914216,4.167883499
0.0122,-1.212705431,4.921399159
0.0124,10.85598338,4.921399159
0.0126,20.45170425,5.29815699
0.0128,28.05002795,5.67491482
0.013,34.31026846,6.428430481
0.0132,39.29511467,6.428430481
0.0134,43.42177184,6.805188311
0.0136,46.79183916,6.805188311
0.0138,49.57825146,7.558703972
0.014,51.74426009,7.935461802
0.0142,53.63573469,7.935461802
0.0144,55.11432741,8.665430099
0.0146,54.56525936,8.288672268
0.0148,44.17836168,8.665430099
0.015,25.81484539,9.042187929
0.0152,6.351031297,9.042187929
0.0154,-10.53389228,9.042187929
0.0156,-24.04658684,9.41894576
0.0158,-34.98255258,9.41894576
0.016,-43.89085754,9.41894576
0.0162,-50.52723129,9.79570359
0.0164,-52.45329286,9.79570359
0.0166,-55.95954635,9.79570359
0.0168,-59.88084341,9.79570359
0.017,-55.37589133,9.41894576
0.0172,-45.33486329,9.41894576
0.0174,-33.98601567,9.41894576
0.0176,-22.77551591,9.042187929
0.0178,-8.125774896,9.042187929
0.018,5.319907427,9.042187929
0.0182,15.94675217,8.665430099
0.0184,24.4054266,8.665430099
0.0186,31.2839091,8.288672268
0.0188,36.88915898,7.935461802
0.019,39.70799656,7.935461802
0.0192,37.472814,7.181946142
0.0194,31.86756412,6.805188311
0.0196,25.60948529,6.805188311
0.0198,19.90047451,6.051672651
0.02,12.74745798,5.67491482
0.0202,5.836550205,5.29815699
0.0204,-1.385640252,4.921399159
0.0206,-10.87760023,4.544641329
0.0208,-23.63586664,4.167883499
0.021,-34.70801855,3.814673033
0.0212,-43.78709665,3.061157372
0.0214,-50.83635228,3.061157372
0.0216,-55.5120775,2.307641711
0.0218,-56.78531012,2.307641711
0.022,-53.31148191,1.930883881
0.0222,-43.1342677,1.17736822
0.0224,-29.44647662,0.80061039
0.0226,-17.34103916,0.80061039
0.0228,-6.785530034,0.80061039
0.023,4.115848737,0.423852559
0.0232,13.67698265,0.423852559
0.0234,20.69165132,0.047094729
0.0236,25.95319324,-0.306115737
0.0238,31.00937507,0.047094729
0.024,36.71622416,0.047094729
0.0242,41.15200231,-0.306115737
0.0244,43.11265084,-0.306115737
0.0246,43.52553273,0.047094729
0.0248,41.22117624,-0.306115737
0.025,35.03227134,-0.306115737
0.0252,25.09284251,0.047094729
0.0254,13.19492683,-0.306115737
0.0256,1.331598121,0.047094729
0.0258,-9.982662535,0.047094729
0.026,-19.50920948,-0.306115737
0.0262,-27.1767071,-0.306115737
0.0264,-31.85459401,-0.306115737
0.0266,-32.67819609,-0.306115737
0.0268,-29.61941145,0.047094729
0.027,-25.04528543,-0.306115737
0.0272,-20.40198549,-0.306115737
0.0274,-15.96620734,-0.306115737
0.0276,-12.59614002,-0.306115737
0.0278,-10.9121872,0.047094729
0.028,-9.638954579,0.047094729
0.0282,-8.709429916,-0.306115737
0.0284,-8.709429916,-0.306115737
0.0286,-7.952840075,0.047094729
0.0288,-4.72112061,-0.306115737
0.029,0.162126395,-0.306115737
0.0292,4.907025542,0.047094729
0.0294,8.828322606,-0.306115737
0.0296,10.0323813,-0.306115737
0.0298,8.2425059,0.047094729
0.03,4.872438578,-0.306115737
0.0302,-0.319929419,0.047094729
0.0304,-7.094651026,0.047094729
0.0306,-13.66185085,-0.306115737
0.0308,-19.02715367,0.047094729
0.031,-23.46293182,-0.306115737
0.0312,-26.59305208,-0.306115737
0.0314,-28.20783097,0.047094729
0.0316,-29.72101065,0.047094729
0.0318,-31.54331133,-0.306115737
0.032,-33.22942583,0.047094729
0.0322,-34.15678881,0.047094729
0.0324,-34.53508373,-0.306115737
0.0326,-33.91684174,-0.306115737
0.0328,-32.19830196,0.047094729
0.033,-30.44301353,-0.306115737
0.0332,-28.2770049,0.047094729
0.0334,-25.04528543,0.047094729
0.0336,-22.1896992,-0.306115737
0.0338,-20.43657246,-0.306115737
0.034,-18.85421885,-0.306115737
0.0342,-17.51397398,-0.306115737
0.0344,-17.06650514,-0.306115737
0.0346,-16.51743708,-0.306115737
0.0348,-16.58444932,-0.306115737
0.035,-18.37432472,0.047094729
0.0352,-21.08940141,0.047094729
0.0354,-23.56669271,-0.306115737
0.0356,-26.0764093,0.047094729
0.0358,-27.48582809,0.047094729
0.036,-27.79494909,-0.306115737
0.0362,-27.48582809,0.047094729
0.0364,-27.31505496,-0.306115737
0.0366,-27.24588103,-0.306115737
0.0368,-27.24588103,0.047094729
0.037,-27.82953605,0.047094729
0.0372,-28.55153893,0.047094729
0.0374,-28.89740857,-0.306115737
0.0376,-28.41535276,0.047094729
0.0378,-26.86758611,-0.306115737
0.038,-23.80663978,-0.306115737
0.0382,-20.47115942,0.047094729
0.0384,-18.33973775,-0.306115737
0.0386,-16.51743708,-0.306115737
0.0388,-15.03884436,-0.306115737
0.039,-14.21308059,0.047094729
0.0392,-13.31814289,-0.306115737
0.0394,-12.04707196,-0.306115737
0.0396,-11.42666829,-0.306115737
0.0398,-11.08296033,0.047094729
0.04,-10.12101039,0.047094729
0.0402,-9.535193686,-0.306115737
0.0404,-9.673541543,0.047094729
0.0406,-9.809727714,-0.306115737
0.0408,-10.2226096,-0.306115737
0.041,-10.18802263,-0.306115737
0.0412,-9.020712594,-0.306115737
0.0414,-7.265424162,-0.306115737
0.0416,-6.095952436,0.047094729
0.0418,-5.512297415,-0.306115737
0.042,-5.134002495,-0.306115737
0.0422,-4.859468467,0.047094729
0.0424,-4.617359717,0.047094729
0.0426,-3.964530769,-0.306115737
0.0428,-2.382177158,-0.306115737
0.043,-0.423690311,-0.306115737
0.0432,2.15736189,-0.306115737
0.0434,5.42366832,-0.306115737
0.0436,7.829624015,-0.306115737
0.0438,9.06826967,0.047094729
0.044,9.550325483,0.047094729
0.0442,9.515738519,-0.306115737
0.0444,9.515738519,-0.306115737
0.0446,10.68521024,0.047094729
0.0448,12.26756386,-0.306115737
0.045,13.50404783,0.047094729
0.0452,15.01722751,-0.306115737
0.0454,16.32504709,-0.306115737
0.0456,17.15081086,-0.306115737
0.0458,17.73446588,0.047094729
0.046,17.9074007,0.047094729
0.0462,17.69987892,-0.306115737
0.0464,17.52910578,0.047094729
0.0466,17.9074007,0.047094729
0.0468,18.59481661,0.047094729
0.047,18.93852457,0.047094729
0.0472,18.76558975,-0.306115737
0.0474,18.52564269,-0.306115737
0.0476,18.66399054,0.047094729
0.0478,19.35140646,-0.306115737
0.048,20.86458614,0.047094729
0.0482,22.54853896,-0.306115737
0.0484,23.44347665,-0.306115737
0.0486,24.2000665,0.047094729
0.0488,24.71454759,0.047094729
0.049,24.37083963,-0.306115737
0.0492,23.44347665,0.047094729
0.0494,22.47936503,0.047094729
0.0496,21.62117598,-0.306115737
0.0498,21.62117598,0.047094729
0.05,22.51395199,0.047094729
0.0502,23.40888969,0.047094729
0.0504,24.13089257,0.047094729
0.0506,24.23465346,0.047094729
0.0508,23.3051288,-0.306115737
0.051,22.10107011,0.047094729
0.0512,21.27746802,-0.306115737
0.0514,20.45170425,0.047094729
0.0516,19.28223253,0.047094729
0.0518,18.07817384,-0.306115737
0.052,17.39075792,-0.306115737
0.0522,17.15081086,0.047094729
0.0524,16.87411515,0.047094729
0.0526,16.18669923,-0.306115737
0.0528,15.36093546,0.047094729
0.053,15.15557536,-0.306115737
0.0532,15.87757824,0.047094729
0.0534,17.321584,0.047094729
0.0536,18.49105572,0.047094729
0.0538,19.0076985,-0.306115737
0.054,19.2130586,0.047094729
0.0542,18.66399054,0.047094729
0.0544,17.49451882,-0.306115737
0.0546,16.49582023,0.047094729
0.0548,15.46469636,0.047094729
0.055,14.1244515,-0.306115737
0.0552,13.09116594,0.047094729
0.0554,12.40375003,0.047094729
0.0556,11.40721312,-0.306115737
0.0558,10.16856747,-0.306115737
0.056,8.175493657,-0.306115737
0.0562,5.836550205,-0.306115737
0.0564,3.875901673,-0.306115737
0.0566,2.637256018,-0.306115737
0.0568,1.606132149,-0.306115737
0.057,0.644182208,-0.306115737
0.0572,-0.389103347,0.047094729
0.0574,-1.66017428,-0.306115737
0.0576,-2.898819935,-0.306115737
0.0578,-4.204477833,-0.306115737
0.058,-5.408536523,-0.306115737
0.0582,-6.338061185,0.047094729
0.0584,-6.921716206,-0.306115737
0.0586,-6.887129241,-0.306115737
0.0588,-6.474247357,0.047094729
0.059,-6.372648149,0.047094729
0.0592,-6.543421285,-0.306115737
0.0594,-7.163824955,-0.306115737
0.0596,-8.16036186,0.047094729
0.0598,-8.607830709,-0.306115737
0.06,-8.36572196,-0.306115737
0.0602,-8.16036186,0.047094729
0.0604,-7.885827832,0.047094729
0.0606,-7.747479975,0.047094729
0.0608,-8.298709717,-0.306115737
0.061,-9.295246622,-0.306115737
0.0612,-10.63549148,-0.306115737
0.0614,-12.39077992,-0.306115737
0.0616,-14.34926676,0.047094729
0.0618,-15.7954342,0.047094729
0.062,-16.895732,-0.306115737
0.0622,-17.58314791,0.047094729
0.0624,-18.33973775,0.047094729
0.0626,-19.33627466,-0.306115737
0.0628,-20.50574639,-0.306115737
0.063,-21.57145722,-0.306115737
0.0632,-22.22428617,-0.306115737
0.0634,-22.12268696,-0.306115737
0.0636,-21.57145722,0.047094729
0.0638,-20.57492031,-0.306115737
0.064,-19.40544859,0.047094729
0.0642,-18.47592393,0.047094729
0.0644,-17.71933408,-0.306115737
0.0646,-17.1010921,0.047094729
0.0648,-16.99733121,0.047094729
0.065,-17.03191817,-0.306115737
0.0652,-16.51743708,0.047094729
0.0654,-15.62249938,-0.306115737
0.0656,-14.62596248,-0.306115737
0.0658,-13.66185085,0.047094729
0.066,-13.28355593,-0.306115737
0.0662,-13.76561174,-0.306115737
0.0664,-14.34926676,0.047094729
0.0666,-14.83132258,0.047094729
0.0668,-15.14044357,-0.306115737
0.067,-15.17503053,-0.306115737
0.0672,-14.96967043,0.047094729
0.0674,-14.59137551,-0.306115737
0.0676,-14.04014577,0.047094729
0.0678,-13.31814289,0.047094729
0.068,-13.0090219,-0.306115737
0.0682,-13.11278279,-0.306115737
0.0684,-13.214382,0.047094729
0.0686,-12.83608708,-0.306115737
0.0688,-11.87413714,-0.306115737
0.069,-10.67007845,0.047094729
0.0692,-9.535193686,-0.306115737
0.0694,-8.882364737,-0.306115737
0.0696,-8.607830709,-0.306115737
0.0698,-8.331134996,-0.306115737
0.07,-7.952840075,0.047094729
0.0702,-7.609132119,-0.306115737
0.0704,-7.196250234,-0.306115737
0.0706,-6.612595213,0.047094729
0.0708,-5.959766264,0.047094729
0.071,-4.961067674,-0.306115737
0.0712,-4.033704697,-0.306115737
0.0714,-3.826182912,0.047094729
0.0716,-3.89535684,-0.306115737
0.0718,-3.860769876,0.047094729
0.072,-3.346288784,-0.306115737
0.0722,-2.451351086,-0.306115737
0.0724,-1.385640252,0.047094729
0.0726,-0.559876483,-0.306115737
0.0728,-0.146994598,-0.306115737
0.073,0.092952466,-0.306115737
0.0732,0.402073459,-0.306115737
0.0734,0.814955343,-0.306115737
0.0736,1.057064093,0.047094729
0.0738,1.331598121,0.047094729
0.074,2.15736189,0.047094729
0.0742,3.463019788,0.047094729
0.0744,5.010786435,-0.306115737
0.0746,6.316444332,-0.306115737
0.0748,6.763913181,0.047094729
0.075,6.662313974,-0.306115737
0.0752,6.593140046,-0.306115737
0.0754,6.83308711,-0.306115737
0.0756,7.211382031,-0.306115737
0.0758,7.624263915,0.047094729
0.076,7.933384908,0.047094729
0.0762,8.2425059,-0.306115737
0.0764,8.689974749,-0.306115737
0.0766,8.999095741,0.047094729
0.0768,8.999095741,0.047094729
0.077,8.897496534,-0.306115737
0.0772,8.828322606,0.047094729
0.0774,9.308216734,-0.306115737
0.0776,10.37608925,-0.306115737
0.0778,11.47638705,-0.306115737
0.078,12.09462904,-0.306115737
0.0782,12.26756386,-0.306115737
0.0784,12.26756386,-0.306115737
0.0786,12.29998913,-0.306115737
0.0788,12.47292396,-0.306115737
0.079,12.71287102,-0.306115737
0.0792,12.85121888,-0.306115737
0.0794,12.9203928,-0.306115737
0.0796,13.1257529,0.047094729
0.0798,13.36786165,-0.306115737
0.08,13.33327469,0.047094729
0.0802,12.74745798,-0.306115737
0.0804,12.129216,-0.306115737
0.0806,11.88926894,0.047094729
0.0808,12.06004207,-0.306115737
0.081,12.64585878,-0.306115737
0.0812,13.2295138,-0.306115737
0.0814,13.36786165,0.047094729
0.0816,13.1257529,-0.306115737
0.0818,12.71287102,-0.306115737
0.082,12.23297689,0.047094729
0.0822,11.88926894,-0.306115737
0.0824,11.51097401,0.047094729
0.0826,11.2342783,-0.306115737
0.0828,11.30345223,-0.306115737
0.083,11.64716019,0.047094729
0.0832,11.85468197,-0.306115737
0.0834,11.78550804,-0.306115737
0.0836,11.2342783,-0.306115737
0.0838,10.54686239,-0.306115737
0.084,10.09939354,-0.306115737
0.0842,9.997794332,0.047094729
0.0844,10.09939354,-0.306115737
0.0846,10.1339805,-0.306115737
0.0848,9.859446475,0.047094729
0.085,9.377390662,-0.306115737
0.0852,8.964508777,-0.306115737
0.0854,8.346266793,0.047094729
0.0856,7.589676951,0.047094729
0.0858,6.83308711,-0.306115737
0.086,6.041910304,-0.306115737
0.0862,5.594441455,0.047094729
0.0864,5.42366832,-0.306115737
0.0866,4.976199471,0.047094729
0.0868,4.288783558,0.047094729
0.087,3.463019788,-0.306115737
0.0872,2.535656811,-0.306115737
0.0874,1.846079213,-0.306115737
0.0876,1.571545185,-0.306115737
0.0878,1.366185085,0.047094729
0.088,1.1586633,-0.306115737
0.0882,0.918716236,-0.306115737
0.0884,0.471247387,0.047094729
0.0886,0.023778538,-0.306115737
0.0888,-0.490702554,-0.306115737
0.089,-1.212705431,0.047094729
0.0892,-1.934708309,-0.306115737
0.0894,-2.313003229,-0.306115737
0.0896,-2.520525014,-0.306115737
0.0898,-2.416764122,0.047094729
0.09,-2.589698943,-0.306115737
0.0902,-3.104180035,0.047094729
0.0904,-3.999117733,0.047094729
0.0906,-4.995654638,-0.306115737
0.0908,-5.752244479,0.047094729
0.091,-6.199713328,0.047094729
0.0912,-6.578008249,-0.306115737
0.0914,-6.990890134,-0.306115737
0.0916,-7.196250234,-0.306115737
0.0918,-7.403772019,0.047094729
0.092,-7.851240868,0.047094729
0.0922,-8.331134996,-0.306115737
0.0924,-8.916951701,0.047094729
0.0926,-9.56978065,0.047094729
0.0928,-9.878901643,-0.306115737
0.093,-9.913488607,-0.306115737
0.0932,-9.708128507,0.047094729
0.0934,-9.56978065,-0.306115737
0.0936,-9.742715471,-0.306115737
0.0938,-10.18802263,0.047094729
0.094,-10.53389228,-0.306115737
0.0942,-10.77383934,-0.306115737
0.0944,-10.8084263,0.047094729
0.0946,-10.67007845,0.047094729
0.0948,-10.60090452,-0.306115737
0.095,-10.39554442,-0.306115737
0.0952,-10.05183646,-0.306115737
0.0954,-9.844314678,-0.306115737
0.0956,-9.844314678,0.047094729
0.0958,-10.12101039,-0.306115737
0.096,-10.49930531,0.047094729
0.0962,-10.49930531,-0.306115737
0.0964,-10.2226096,0.047094729
0.0966,-9.809727714,0.047094729
0.0968,-9.500606722,-0.306115737
0.097,-9.399007515,-0.306115737
0.0972,-9.673541543,-0.306115737
0.0974,-9.809727714,-0.306115737
0.0976,-9.777302435,-0.306115737
0.0978,-9.844314678,-0.306115737
0.098,-9.809727714,-0.306115737
0.0982,-9.638954579,-0.306115737
0.0984,-9.260659658,0.047094729
0.0986,-8.709429916,-0.306115737
0.0988,-8.264122753,-0.306115737
0.099,-8.091187932,0.047094729
0.0992,-8.16036186,0.047094729
0.0994,-8.229535788,-0.306115737
0.0996,-7.920414796,-0.306115737
0.0998,-7.230837198,0.047094729
0.1,-6.681769142,-0.306115737
0.1002,-6.268887257,-0.306115737
0.1004,-5.959766264,-0.306115737
0.1006,-5.683070551,-0.306115737
0.1008,-5.373949559,0.047094729
0.101,-4.995654638,-0.306115737
0.1012,-4.790294538,-0.306115737
0.1014,-4.686533646,0.047094729
0.1016,-4.204477833,-0.306115737
0.1018,-3.415462712,-0.306115737
0.102,-2.658872871,0.047094729
0.1022,-2.003882237,-0.306115737
0.1024,-1.833109101,-0.306115737
0.1026,-1.833109101,0.047094729
0.1028,-1.625587316,-0.306115737
0.103,-1.212705431,-0.306115737
0.1032,-0.767398268,-0.306115737
0.1034,-0.354516383,0.047094729
0.1036,-0.077820669,-0.306115737
0.1038,0.162126395,0.047094729
0.104,0.471247387,0.047094729
0.1042,0.780368379,-0.306115737
0.1044,0.849542308,-0.306115737
0.1046,0.678769172,0.047094729
0.1048,0.711194451,-0.306115737
0.105,1.057064093,-0.306115737
0.1052,1.675306077,-0.306115737
0.1054,2.224374134,-0.306115737
0.1056,2.56808209,-0.306115737
0.1058,2.741016911,-0.306115737
0.106,2.741016911,-0.306115737
0.1062,2.980963975,-0.306115737
0.1064,3.39384586,-0.306115737
0.1066,3.702966852,0.047094729
0.1068,3.979662565,0.047094729
0.107,4.323370522,-0.306115737
0.1072,4.736252407,-0.306115737
0.1074,5.216146535,0.047094729
0.1076,5.492842248,-0.306115737
0.1078,5.458255284,-0.306115737
0.108,5.389081356,0.047094729
0.1082,5.42366832,-0.306115737
0.1084,5.732789312,-0.306115737
0.1086,6.249432089,-0.306115737
0.1088,6.763913181,0.047094729
0.109,6.902261038,-0.306115737
0.1092,6.83308711,0.047094729
0.1094,6.83308711,-0.306115737
0.1096,6.83308711,0.047094729
0.1098,6.902261038,-0.306115737
0.11,6.867674074,-0.306115737
0.1102,6.83308711,0.047094729
0.1104,6.971434967,-0.306115737
0.1106,7.245968995,-0.306115737
0.1108,7.485916059,-0.306115737
0.111,7.589676951,-0.306115737
0.1112,7.245968995,-0.306115737
0.1114,6.83308711,0.047094729
0.1116,6.593140046,0.047094729
0.1118,6.558553082,-0.306115737
0.112,6.593140046,0.047094729
0.1122,6.729326217,0.047094729
0.1124,6.763913181,-0.306115737
0.1126,6.763913181,-0.306115737
0.1128,7.040608895,-0.306115737
0.113,7.245968995,-0.306115737
0.1132,7.349729887,-0.306115737
0.1134,7.384316851,-0.306115737
0.1136,7.315142923,-0.306115737
0.1138,7.384316851,-0.306115737
0.114,7.555089987,-0.306115737
0.1142,7.555089987,-0.306115737
0.1144,7.349729887,0.047094729
0.1146,6.971434967,0.047094729
0.1148,6.523966118,-0.306115737
0.115,6.249432089,0.047094729
0.1152,6.214845125,-0.306115737
0.1154,6.076497269,-0.306115737
0.1156,5.871137169,-0.306115737
0.1158,5.663615384,0.047094729
0.116,5.42366832,-0.306115737
0.1162,5.216146535,0.047094729
0.1164,4.941612507,0.047094729
0.1166,4.563317586,-0.306115737
0.1168,4.254196594,-0.306115737
0.117,4.048836494,-0.306115737
0.1172,3.945075601,-0.306115737
0.1174,4.01424953,-0.306115737
0.1176,4.048836494,0.047094729
0.1178,3.670541573,-0.306115737
0.118,3.292246652,0.047094729
0.1182,2.946377011,-0.306115737
0.1184,2.637256018,-0.306115737
0.1186,2.535656811,-0.306115737
0.1188,2.431895919,-0.306115737
0.119,2.293548062,-0.306115737
0.1192,2.189787169,0.047094729
0.1194,2.122774926,-0.306115737
0.1196,2.019014034,-0.306115737
0.1198,1.846079213,0.047094729
0.12,1.536958221,-0.306115737
0.1202,1.089489372,-0.306115737
0.1204,0.884129272,0.047094729
0.1206,0.745781415,-0.306115737
0.1208,0.644182208,0.047094729
0.121,0.505834351,-0.306115737
0.1212,0.12753943,-0.306115737
0.1214,-0.490702554,-0.306115737
0.1216,-1.041932296,-0.306115737
0.1218,-1.558575073,-0.306115737
0.122,-1.934708309,-0.306115737
