Latest: Time (s),Latest: Z-Axis Acceleration (m/s²),Latest: Potential (mV)
0,-46.57134726,10.17246142
0.0002,-48.87570375,10.54921925
0.0004,-49.08322554,10.92597708
0.0006,-49.3231726,10.92597708
0.0008,-52.69323992,10.92597708
0.001,-58.0931297,10.92597708
0.0012,-62.63050707,11.30273491
0.0014,-66.41345627,11.30273491
0.0016,-69.40522867,11.30273491
0.0018,-71.88251998,10.92597708
0.002,-72.60452286,10.92597708
0.0022,-71.95169391,10.54921925
0.0024,-69.99104538,10.17246142
0.0026,-65.93356214,9.79570359
0.0028,-58.2984898,9.41894576
0.003,-48.87570375,9.042187929
0.0032,-40.07332137,8.665430099
0.0034,-31.44171212,8.288672268
0.0036,-24.11576077,7.935461802
0.0038,-17.82309498,7.181946142
0.004,-13.28355593,6.805188311
0.0042,-8.642417673,6.428430481
0.0044,-0.732811303,5.67491482
0.0046,9.342803698,5.67491482
0.0048,19.2130586,5.29815699
0.005,26.94973015,4.544641329
0.0052,33.3807438,4.167883499
0.0054,38.5731118,4.167883499
0.0056,42.2544618,3.437915202
0.0058,44.24753561,3.061157372
0.006,45.07329938,3.061157372
0.0062,45.3478334,2.684399541
0.0064,45.10788634,2.684399541
0.0066,46.03524932,2.307641711
0.0068,47.30848194,1.930883881
0.007,49.47449057,2.307641711
0.0072,51.33137821,1.930883881
0.0074,53.22285281,1.930883881
0.0076,54.83979338,1.930883881
0.0078,56.04385208,1.930883881
0.008,57.10956291,1.930883881
0.0082,57.93532668,1.930883881
0.0084,57.96991364,1.930883881
0.0086,57.96991364,1.930883881
0.0088,57.96991364,1.930883881
0.009,57.96991364,1.930883881
0.0092,57.96991364,1.930883881
0.0094,57.96991364,2.307641711
0.0096,57.96991364,2.307641711
0.0098,57.96991364,2.307641711
0.01,54.08320354,2.307641711
0.0102,45.69154136,2.307641711
0.0104,36.13256914,2.307641711
0.0106,22.79064771,2.307641711
0.0108,9.824859511,2.684399541
0.011,3.463019788,3.061157372
0.0112,-1.969295273,3.061157372
0.0114,-6.785530034,3.437915202
0.0116,-7.782066939,3.814673033
0.0118,-1.694761245,3.814673033
0.012,9.377390662,4.167883499
0.0122,19.31681949,4.167883499
0.0124,27.1918389,4.921399159
0.0126,33.65527783,4.921399159
0.0128,38.78063358,5.29815699
0.013,43.01105164,5.29815699
0.0132,46.48271817,5.67491482
0.0134,49.30371743,5.67491482
0.0136,51.57348696,6.051672651
0.0138,53.36120067,6.428430481
0.014,52.91373182,6.805188311
0.0142,49.3383044,6.805188311
0.0144,43.38934656,6.805188311
0.0146,34.13733364,6.805188311
0.0148,22.51395199,7.181946142
0.015,9.619499411,7.181946142
0.0152,-3.173353963,7.558703972
0.0154,-15.38255232,7.558703972
0.0156,-26.72923825,7.935461802
0.0158,-36.77242797,7.935461802
0.016,-44.57827345,7.935461802
0.0162,-47.39711103,7.935461802
0.0164,-46.5367603,7.935461802
0.0166,-42.58303796,7.935461802
0.0168,-38.00891194,7.558703972
0.017,-32.23288893,7.558703972
0.0172,-23.9795746,7.558703972
0.0174,-14.21308059,7.181946142
0.0176,-4.239064797,6.805188311
0.0178,5.045373399,6.805188311
0.018,14.50274642,6.805188311
0.0182,22.37776582,6.805188311
0.0184,27.50095989,6.051672651
0.0186,30.52731926,6.051672651
0.0188,31.14556124,5.67491482
0.019,30.69809239,5.29815699
0.0192,29.87449031,5.29815699
0.0194,27.57013382,4.921399159
0.0196,22.23941796,4.544641329
0.0198,14.84645437,4.167883499
0.02,7.211382031,3.814673033
0.0202,-1.558575073,3.437915202
0.0204,-10.94461248,3.061157372
0.0206,-20.2982246,2.684399541
0.0208,-29.10276867,2.307641711
0.021,-36.90861415,2.307641711
0.0212,-42.92674591,1.930883881
0.0214,-45.84934438,1.55412605
0.0216,-46.15846538,1.17736822
0.0218,-44.06163067,0.80061039
0.022,-39.52209163,0.80061039
0.0222,-32.47283599,0.80061039
0.0224,-24.39245648,0.423852559
0.0226,-15.62249938,0.423852559
0.0228,-6.372648149,0.047094729
0.023,2.431895919,0.047094729
0.0232,10.37608925,0.047094729
0.0234,16.94328908,0.047094729
0.0236,22.27400493,0.047094729
0.0238,26.19314031,0.047094729
0.024,28.1883758,0.047094729
0.0242,28.11920187,0.047094729
0.0244,26.36607513,-0.306115737
0.0246,24.06171864,0.047094729
0.0248,21.1045332,0.047094729
0.025,17.15081086,0.047094729
0.0252,11.33803919,0.047094729
0.0254,3.532193716,0.047094729
0.0256,-4.928642395,0.047094729
0.0258,-12.28701902,0.047094729
0.026,-18.33973775,0.047094729
0.0262,-21.91516518,0.047094729
0.0264,-22.74092895,0.047094729
0.0266,-20.67651952,0.047094729
0.0268,-17.68474712,0.423852559
0.027,-15.31337839,0.047094729
0.0272,-14.34926676,0.047094729
0.0274,-14.72756168,0.047094729
0.0276,-16.96274424,0.047094729
0.0278,-20.0928645,0.047094729
0.028,-21.91516518,0.047094729
0.0282,-21.60604418,0.047094729
0.0284,-18.9925667,0.047094729
0.0286,-14.66054944,0.047094729
0.0288,-10.29178353,0.047094729
0.029,-6.439660392,0.047094729
0.0292,-3.964530769,0.047094729
0.0294,-2.864232971,0.047094729
0.0296,-2.416764122,0.047094729
0.0298,-2.555111978,0.047094729
0.03,-3.31170182,0.047094729
0.0302,-4.342825689,0.047094729
0.0304,-5.477710451,0.047094729
0.0306,-7.230837198,0.047094729
0.0308,-9.913488607,0.047094729
0.031,-13.52566468,0.047094729
0.0312,-17.23943996,0.047094729
0.0314,-19.85291744,0.047094729
0.0316,-21.36609712,0.047094729
0.0318,-21.84599125,0.047094729
0.032,-22.32804706,0.047094729
0.0322,-23.46293182,0.047094729
0.0324,-24.9761115,0.047094729
0.0326,-26.69465129,0.047094729
0.0328,-28.62071285,0.047094729
0.033,-29.72101065,0.047094729
0.0332,-29.61941145,0.047094729
0.0334,-28.79364768,0.047094729
0.0336,-26.93676004,0.047094729
0.0338,-24.08117381,0.047094729
0.034,-21.60604418,0.047094729
0.0342,-20.2982246,0.047094729
0.0344,-20.19662539,0.047094729
0.0346,-20.40198549,0.047094729
0.0348,-19.98910361,0.047094729
0.035,-18.88880581,0.047094729
0.0352,-17.1010921,0.047094729
0.0354,-14.86590954,0.047094729
0.0356,-12.83608708,0.047094729
0.0358,-11.46125525,0.047094729
0.036,-10.94461248,0.047094729
0.0362,-11.3229074,0.047094729
0.0364,-12.28701902,0.047094729
0.0366,-13.59267692,0.047094729
0.0368,-14.72756168,0.047094729
0.037,-14.66054944,0.047094729
0.0372,-14.1093197,0.047094729
0.0374,-13.83478567,0.047094729
0.0376,-14.21308059,0.047094729
0.0378,-15.07126964,0.047094729
0.038,-15.96620734,0.047094729
0.0382,-16.34450226,0.047094729
0.0384,-15.62249938,0.047094729
0.0386,-14.1093197,0.047094729
0.0388,-12.39077992,0.047094729
0.039,-10.8084263,0.047094729
0.0392,-9.431432794,0.047094729
0.0394,-8.607830709,0.047094729
0.0396,-8.504069817,0.047094729
0.0398,-8.504069817,0.047094729
0.04,-8.538656781,0.047094729
0.0402,-7.678306047,0.047094729
0.0404,-5.512297415,0.047094729
0.0406,-2.829646007,0.047094729
0.0408,-0.663637375,0.047094729
0.041,0.918716236,0.047094729
0.0412,1.709893041,0.047094729
0.0414,1.98442707,0.047094729
0.0416,2.293548062,0.047094729
0.0418,2.913951732,0.423852559
0.042,4.081261773,0.047094729
0.0422,5.594441455,0.047094729
0.0424,7.107621138,0.047094729
0.0426,8.759148677,0.047094729
0.0428,10.16856747,0.047094729
0.043,10.41067622,0.047094729
0.0432,9.824859511,0.047094729
0.0434,9.06826967,0.047094729
0.0436,8.999095741,0.047094729
0.0438,9.963207368,0.047094729
0.044,11.09809213,0.047094729
0.0442,11.9238559,0.047094729
0.0444,12.36916306,0.047094729
0.0446,12.06004207,0.047094729
0.0448,11.2342783,0.047094729
0.045,10.78897114,0.047094729
0.0452,10.82139642,0.047094729
0.0454,11.06350517,0.047094729
0.0456,12.02545511,0.047094729
0.0458,13.81316882,0.047094729
0.046,15.67221814,0.047094729
0.0462,16.90870211,0.047094729
0.0464,16.97787604,0.047094729
0.0466,16.32504709,0.047094729
0.0468,15.84299128,0.423852559
0.047,15.91216521,-0.306115737
0.0472,17.04704997,0.423852559
0.0474,18.80017671,0.047094729
0.0476,20.3133564,0.047094729
0.0478,21.62117598,0.047094729
0.048,22.30859189,0.047094729
0.0482,22.27400493,0.047094729
0.0484,21.72277519,0.423852559
0.0486,20.86458614,0.047094729
0.0488,19.72970138,0.047094729
0.049,19.17847164,0.047094729
0.0492,19.45300566,0.047094729
0.0494,19.79671362,0.047094729
0.0496,19.69511441,0.047094729
0.0498,18.76558975,0.047094729
0.05,17.1162239,0.047094729
0.0502,15.67221814,0.047094729
0.0504,14.84645437,0.047094729
0.0506,14.39898552,0.047094729
0.0508,14.53733338,0.423852559
0.051,14.81186741,0.047094729
0.0512,14.88104134,0.047094729
0.0514,14.88104134,0.047094729
0.0516,14.56975866,0.047094729
0.0518,13.67698265,0.047094729
0.052,12.3345761,0.047094729
0.0522,11.37262616,0.047094729
0.0524,11.44180009,0.047094729
0.0526,12.29998913,0.047094729
0.0528,12.98956673,0.047094729
0.053,13.1257529,0.047094729
0.0532,12.71287102,0.047094729
0.0534,11.51097401,0.047094729
0.0536,10.2377414,0.047094729
0.0538,9.411977626,0.047094729
0.054,8.828322606,0.047094729
0.0542,8.277092864,0.047094729
0.0544,7.933384908,0.047094729
0.0546,7.624263915,0.047094729
0.0548,7.107621138,0.047094729
0.055,6.145671197,0.047094729
0.0552,4.288783558,0.047094729
0.0554,2.224374134,0.047094729
0.0556,0.849542308,0.047094729
0.0558,0.058365502,0.047094729
0.056,-0.077820669,0.047094729
0.0562,-0.04539539,0.423852559
0.0564,-0.594463447,0.047094729
0.0566,-1.66017428,0.047094729
0.0568,-2.829646007,0.047094729
0.057,-4.172052554,0.047094729
0.0572,-5.272350351,0.047094729
0.0574,-6.061365472,0.047094729
0.0576,-6.612595213,0.423852559
0.0578,-6.681769142,0.047094729
0.058,-6.407235113,0.047094729
0.0582,-6.372648149,0.047094729
0.0584,-6.817955313,0.047094729
0.0586,-8.091187932,0.047094729
0.0588,-9.466019758,0.047094729
0.059,-10.15559736,0.047094729
0.0592,-10.12101039,0.047094729
0.0594,-9.708128507,0.047094729
0.0596,-9.020712594,0.047094729
0.0598,-8.709429916,0.047094729
0.06,-8.813190809,0.047094729
0.0602,-9.399007515,0.047094729
0.0604,-10.18802263,0.047094729
0.0606,-11.15213426,0.047094729
0.0608,-12.28701902,0.047094729
0.061,-12.90526101,0.047094729
0.0612,-12.90526101,0.047094729
0.0614,-12.49237912,0.047094729
0.0616,-12.32160599,0.047094729
0.0618,-12.93984797,0.047094729
0.062,-14.1093197,0.047094729
0.0622,-15.41713928,0.047094729
0.0624,-16.44826315,0.047094729
0.0626,-17.06650514,0.047094729
0.0628,-16.99733121,0.047094729
0.063,-16.61903629,0.047094729
0.0632,-16.30991529,0.047094729
0.0634,-16.0007943,0.047094729
0.0636,-15.72626027,0.047094729
0.0638,-15.72626027,0.047094729
0.064,-16.0007943,0.047094729
0.0642,-16.30991529,0.047094729
0.0644,-15.96620734,0.047094729
0.0646,-15.07126964,0.047094729
0.0648,-13.86937263,0.047094729
0.065,-12.76907484,0.047094729
0.0652,-12.1140842,0.047094729
0.0654,-12.18325813,0.047094729
0.0656,-12.32160599,0.047094729
0.0658,-12.18325813,0.047094729
0.066,-11.9087241,0.047094729
0.0662,-11.1175473,0.047094729
0.0664,-10.25719656,0.047094729
0.0666,-9.56978065,0.047094729
0.0668,-8.847777773,0.047094729
0.067,-8.331134996,0.047094729
0.0672,-8.36572196,0.047094729
0.0674,-8.882364737,0.047094729
0.0676,-9.399007515,0.047094729
0.0678,-9.399007515,0.047094729
0.068,-8.709429916,0.047094729
0.0682,-7.747479975,0.047094729
0.0684,-6.921716206,0.047094729
0.0686,-6.474247357,0.047094729
0.0688,-6.543421285,0.047094729
0.069,-6.817955313,0.047094729
0.0692,-6.785530034,0.047094729
0.0694,-6.474247357,0.047094729
0.0696,-5.994353229,-0.306115737
0.0698,-5.306937316,0.423852559
0.07,-4.446586582,0.047094729
0.0702,-3.207940927,0.047094729
0.0704,-2.28057795,0.047094729
0.0706,-1.969295273,0.047094729
0.0708,-1.969295273,0.047094729
0.071,-1.833109101,0.047094729
0.0712,-1.385640252,0.047094729
0.0714,-0.319929419,0.047094729
0.0716,1.227837228,0.047094729
0.0718,2.397308954,0.047094729
0.072,3.050137903,0.047094729
0.0722,3.359258896,0.047094729
0.0724,3.497606752,0.047094729
0.0726,3.737553816,0.047094729
0.0728,3.77214078,0.047094729
0.073,3.77214078,0.047094729
0.0732,4.219609629,0.047094729
0.0734,5.045373399,0.047094729
0.0736,6.145671197,0.047094729
0.0738,6.936848002,0.047094729
0.074,7.006021931,0.423852559
0.0742,6.558553082,0.047094729
0.0744,6.145671197,0.047094729
0.0746,5.972736376,0.047094729
0.0748,6.284019054,0.047094729
0.075,6.867674074,0.047094729
0.0752,7.315142923,0.047094729
0.0754,7.555089987,0.047094729
0.0756,7.864210979,0.047094729
0.0758,8.0371458,0.047094729
0.076,8.140906693,0.047094729
0.0762,8.002558836,0.047094729
0.0764,7.829624015,0.047094729
0.0766,8.311679828,0.047094729
0.0768,9.308216734,0.047094729
0.077,10.4431015,0.047094729
0.0772,11.19969134,0.047094729
0.0774,11.37262616,0.047094729
0.0776,11.09809213,0.047094729
0.0778,10.92515731,0.047094729
0.078,10.99433124,0.047094729
0.0782,11.26886527,0.047094729
0.0784,11.64716019,0.047094729
0.0786,11.78550804,0.047094729
0.0788,11.88926894,0.423852559
0.079,12.16380296,0.047094729
0.0792,12.02545511,0.047094729
0.0794,11.33803919,0.047094729
0.0796,10.54686239,0.047094729
0.0798,9.963207368,0.047094729
0.08,9.755685583,0.047094729
0.0802,10.1339805,0.047094729
0.0804,10.54686239,0.047094729
0.0806,10.54686239,0.047094729
0.0808,10.20315443,0.423852559
0.081,9.619499411,0.047094729
0.0812,9.102856634,0.047094729
0.0814,8.793735642,0.047094729
0.0816,8.553788578,0.047094729
0.0818,8.346266793,0.047094729
0.082,8.380853757,0.047094729
0.0822,8.519201613,0.047094729
0.0824,8.620800821,0.423852559
0.0826,8.484614649,0.047094729
0.0828,7.898797943,0.047094729
0.083,7.040608895,0.047094729
0.0832,6.558553082,0.047094729
0.0834,6.489379153,0.047094729
0.0836,6.798500146,0.047094729
0.0838,7.073034174,0.047094729
0.084,6.971434967,0.047094729
0.0842,6.558553082,0.047094729
0.0844,6.00732334,0.047094729
0.0846,5.42366832,0.047094729
0.0848,4.770839371,0.047094729
0.085,4.219609629,0.047094729
0.0852,3.635954609,0.047094729
0.0854,3.359258896,0.047094729
0.0856,3.359258896,0.423852559
0.0858,3.119311832,0.047094729
0.086,2.397308954,0.047094729
0.0862,1.435359013,0.047094729
0.0864,0.231300323,0.047094729
0.0866,-0.594463447,0.047094729
0.0868,-0.972758367,0.047094729
0.087,-1.007345332,0.047094729
0.0872,-1.041932296,0.047094729
0.0874,-1.212705431,0.047094729
0.0876,-1.625587316,0.047094729
0.0878,-2.003882237,0.047094729
0.088,-2.416764122,0.047094729
0.0882,-3.069593071,0.047094729
0.0884,-3.759170669,0.047094729
0.0886,-4.033704697,0.047094729
0.0888,-3.964530769,0.047094729
0.089,-3.793757633,0.047094729
0.0892,-3.586235848,0.047094729
0.0894,-3.964530769,0.047094729
0.0896,-4.72112061,0.047094729
0.0898,-5.512297415,0.047094729
0.09,-6.095952436,0.047094729
0.0902,-6.303474221,0.047094729
0.0904,-6.338061185,0.047094729
0.0906,-6.407235113,0.047094729
0.0908,-6.508834321,0.047094729
0.091,-6.612595213,0.047094729
0.0912,-6.921716206,0.047094729
0.0914,-7.33459809,0.047094729
0.0916,-7.782066939,0.047094729
0.0918,-8.36572196,0.047094729
0.092,-8.642417673,0.047094729
0.0922,-8.538656781,0.047094729
0.0924,-8.229535788,0.047094729
0.0926,-7.952840075,0.047094729
0.0928,-8.091187932,0.047094729
0.093,-8.573243745,0.047094729
0.0932,-9.087724837,0.047094729
0.0934,-9.36442055,0.047094729
0.0936,-9.399007515,0.047094729
0.0938,-9.19148573,0.047094729
0.094,-8.951538666,0.047094729
0.0942,-8.778603845,0.047094729
0.0944,-8.469482852,0.047094729
0.0946,-8.229535788,0.047094729
0.0948,-8.298709717,0.047094729
0.095,-8.434895888,0.047094729
0.0952,-8.607830709,0.047094729
0.0954,-8.573243745,0.047094729
0.0956,-8.16036186,0.047094729
0.0958,-7.438358983,0.047094729
0.096,-6.921716206,0.047094729
0.0962,-6.75094307,0.047094729
0.0964,-6.921716206,0.047094729
0.0966,-7.094651026,0.047094729
0.0968,-7.025477098,0.047094729
0.097,-6.95630317,0.047094729
0.0972,-6.921716206,0.047094729
0.0974,-6.681769142,0.047094729
0.0976,-6.372648149,0.047094729
0.0978,-5.959766264,0.047094729
0.098,-5.512297415,0.047094729
0.0982,-5.373949559,0.047094729
0.0984,-5.512297415,0.047094729
0.0986,-5.717657515,0.423852559
0.0988,-5.616058308,0.047094729
0.099,-5.064828566,0.047094729
0.0992,-4.411999618,0.047094729
0.0994,-4.068291661,0.047094729
0.0996,-3.793757633,0.047094729
0.0998,-3.51706192,0.047094729
0.1,-3.31170182,0.047094729
0.1002,-2.967993863,0.047094729
0.1004,-2.760472078,0.047094729
0.1006,-2.589698943,0.047094729
0.1008,-2.28057795,0.047094729
0.101,-1.694761245,0.047094729
0.1012,-1.111106224,0.047094729
0.1014,-0.559876483,0.047094729
0.1016,-0.354516383,0.047094729
0.1018,-0.354516383,0.047094729
0.102,-0.319929419,0.047094729
0.1022,-0.010808426,0.047094729
0.1024,0.609595244,0.047094729
0.1026,1.297011157,0.047094729
0.1028,1.606132149,0.047094729
0.103,1.744480006,0.047094729
0.1032,2.019014034,0.047094729
0.1034,2.189787169,0.423852559
0.1036,2.258961098,0.047094729
0.1038,2.122774926,0.047094729
0.104,2.019014034,0.047094729
0.1042,2.15736189,0.047094729
0.1044,2.56808209,0.047094729
0.1046,2.980963975,0.047094729
0.1048,3.223072724,0.047094729
0.105,3.18848576,0.047094729
0.1052,2.946377011,0.047094729
0.1054,2.946377011,0.047094729
0.1056,3.257659688,0.047094729
0.1058,3.635954609,0.047094729
0.106,3.979662565,0.047094729
0.1062,4.219609629,0.047094729
0.1064,4.528730622,0.047094729
0.1066,4.837851614,0.047094729
0.1068,5.010786435,0.047094729
0.107,5.010786435,0.047094729
0.1072,4.907025542,0.047094729
0.1074,4.805426335,0.047094729
0.1076,5.183721256,0.047094729
0.1078,5.732789312,0.047094729
0.108,6.249432089,0.047094729
0.1082,6.385618261,0.047094729
0.1084,6.284019054,0.047094729
0.1086,6.076497269,0.047094729
0.1088,5.972736376,0.423852559
0.109,5.972736376,0.047094729
0.1092,6.00732334,0.047094729
0.1094,6.00732334,0.047094729
0.1096,6.076497269,0.047094729
0.1098,6.249432089,0.047094729
0.11,6.420205225,0.047094729
0.1102,6.385618261,0.047094729
0.1104,6.041910304,0.047094729
0.1106,5.62902842,0.047094729
0.1108,5.250733499,0.047094729
0.111,5.079960363,0.047094729
0.1112,5.285320463,0.047094729
0.1114,5.319907427,0.047094729
0.1116,5.183721256,0.047094729
0.1118,4.872438578,0.047094729
0.112,4.736252407,0.047094729
0.1122,4.736252407,0.047094729
0.1124,4.736252407,0.047094729
0.1126,4.736252407,0.047094729
0.1128,4.701665443,0.047094729
0.113,4.770839371,0.047094729
0.1132,4.941612507,0.047094729
0.1134,5.045373399,0.047094729
0.1136,5.010786435,0.047094729
0.1138,4.770839371,0.047094729
0.114,4.357957486,0.047094729
0.1142,4.185022665,0.423852559
0.1144,4.254196594,0.047094729
0.1146,4.323370522,0.047094729
0.1148,4.185022665,0.047094729
0.115,3.945075601,0.047094729
0.1152,3.635954609,0.047094729
0.1154,3.39384586,0.047094729
0.1156,3.119311832,0.047094729
0.1158,2.810190839,0.047094729
0.116,2.466482883,0.047094729
0.1162,2.15736189,0.047094729
0.1164,2.019014034,0.047094729
0.1166,2.019014034,0.047094729
0.1168,1.98442707,0.047094729
0.117,1.640719113,0.047094729
0.1172,1.193250264,0.047094729
0.1174,0.849542308,0.047094729
0.1176,0.540421315,0.047094729
0.1178,0.471247387,0.047094729
0.118,0.505834351,0.047094729
0.1182,0.33289953,0.047094729
0.1184,0.162126395,0.047094729
0.1186,-0.010808426,0.047094729
0.1188,-0.112407634,0.047094729
0.119,-0.285342454,0.047094729
0.1192,-0.490702554,0.047094729
0.1194,-0.732811303,0.047094729
0.1196,-0.868997475,0.047094729
0.1198,-0.767398268,0.047094729
0.12,-0.629050411,0.047094729
0.1202,-0.594463447,0.047094729
0.1204,-0.834410511,0.047094729
0.1206,-1.316466324,0.423852559
0.1208,-1.729348209,0.047094729
0.121,-2.003882237,0.047094729
0.1212,-2.245990986,0.423852559
0.1214,-2.416764122,0.047094729
0.1216,-2.658872871,0.047094729
0.1218,-2.864232971,0.423852559
0.122,-3.037167792,0.047094729
0.1222,-3.207940927,0.047094729
0.1224,-3.482474955,0.047094729
0.1226,-3.89535684,0.047094729
0.1228,-4.342825689,0.047094729
0.123,-4.617359717,0.047094729
0.1232,-4.51576051,0.047094729
0.1234,-4.342825689,0.047094729
0.1236,-4.308238725,0.047094729
0.1238,-4.446586582,0.047094729
