"Latest: Time (s)","Latest: Z-Axis Acceleration (m/s²)","Latest: Potential (mV)"
0,-64.6135003779,10.0547245983
0.0002,-67.5695968057,10.0547245983
0.0004,-69.7760948548,10.4314824287
0.0006,-69.4400679953,10.8082402591
0.0008,-68.128858292,11.1849980894
0.001,-67.5695968057,11.1849980894
0.0012,-64.575902967,11.1849980894
0.0014,-61.3942220742,11.1849980894
0.0016,-57.2796554246,10.8082402591
0.0018,-52.3402955747,10.4314824287
0.002,-51.0290858714,10.4314824287
0.0022,-49.7202260063,10.4314824287
0.0024,-46.8017269894,10.0547245983
0.0026,-44.5552816913,9.70151413232
0.0028,-42.6472130908,9.32475630194
0.003,-42.3111862314,8.94799847156
0.0032,-42.4615758748,8.1944828108
0.0034,-41.5991852635,7.44096715003
0.0036,-41.1503661715,7.06420931965
0.0038,-39.3926872144,6.31069365889
0.004,-37.7830480626,5.93393582851
0.0042,-35.0525360998,5.93393582851
0.0044,-31.4596335258,5.55717799813
0.0046,-27.8667309518,5.18042016774
0.0048,-23.9378015183,4.45045187138
0.005,-20.9817050905,4.45045187138
0.0052,-16.6039565651,4.073694041
0.0054,-10.9549455854,3.69693621062
0.0056,-4.85476567555,3.32017838024
0.0058,4.16156341307,3.32017838024
0.006,13.1802423399,2.94342054985
0.0062,20.7396717582,2.94342054985
0.0064,27.2111261002,2.94342054985
0.0066,32.4512652369,2.94342054985
0.0068,37.0146509784,2.94342054985
0.007,40.9435804118,2.94342054985
0.0072,44.1628587156,2.94342054985
0.0074,46.9685655,2.56666271947
0.0076,49.3254531924,2.94342054985
0.0078,51.3839114363,3.32017838024
0.008,53.1063428207,3.32017838024
0.0082,54.5655923292,3.69693621062
0.0084,55.7992573726,4.073694041
0.0086,56.8848826108,4.073694041
0.0088,57.7825207947,4.073694041
0.009,58.3065347084,4.45045187138
0.0092,57.6321311513,4.45045187138
0.0094,56.4736609296,4.82720970176
0.0096,55.0896062428,5.18042016774
0.0098,53.928786183,5.55717799813
0.01,51.6094959014,5.93393582851
0.0102,48.3902175976,5.93393582851
0.0104,44.1252613047,6.31069365889
0.0106,39.5971231359,6.68745148927
0.0108,35.7433885241,7.06420931965
0.011,32.9000843289,7.06420931965
0.0112,31.3656399987,7.44096715003
0.0114,30.6536390308,7.81772498041
0.0116,30.5431966364,7.81772498041
0.0118,31.1776529445,8.1944828108
0.012,30.9544183176,8.57124064118
0.0122,30.7664312633,8.57124064118
0.0124,30.6912364416,8.57124064118
0.0126,30.3552095822,8.57124064118
0.0128,30.9544183176,8.94799847156
0.013,32.1128885393,8.94799847156
0.0132,33.4240982425,8.94799847156
0.0134,34.5449710534,8.94799847156
0.0136,34.3969312482,8.57124064118
0.0138,33.6097354586,8.57124064118
0.014,31.6264720364,8.57124064118
0.0142,28.820765252,8.1944828108
0.0144,25.8270714134,8.1944828108
0.0146,23.1717542723,8.1944828108
0.0148,20.2532552554,8.1944828108
0.015,17.184366595,7.81772498041
0.0152,14.2658675781,7.44096715003
0.0154,11.8337850639,7.44096715003
0.0156,9.06332585218,7.06420931965
0.0158,7.34324430596,7.06420931965
0.016,5.58321551071,6.68745148927
0.0162,4.87356438098,6.31069365889
0.0164,5.13439641873,5.93393582851
0.0166,6.14482683523,5.93393582851
0.0168,8.12809025738,5.55717799813
0.017,12.1322145125,5.55717799813
0.0172,16.7731449139,5.55717799813
0.0174,20.7396717582,5.18042016774
0.0176,25.5286419648,4.82720970176
0.0178,30.0943775444,4.82720970176
0.018,33.5368904751,4.82720970176
0.0182,37.5010674812,4.45045187138
0.0184,40.5323587307,4.45045187138
0.0186,42.5908169746,4.45045187138
0.0188,44.1252613047,4.45045187138
0.019,44.7620674509,4.45045187138
0.0192,44.9853020778,4.45045187138
0.0194,44.9853020778,4.45045187138
0.0196,44.050066483,4.45045187138
0.0198,41.7307762014,4.45045187138
0.02,39.4843309034,4.45045187138
0.0202,36.1922076161,4.45045187138
0.0204,31.1776529445,4.82720970176
0.0206,25.0046280511,4.82720970176
0.0208,18.1947970115,4.82720970176
0.021,11.6457980097,4.82720970176
0.0212,6.29521647861,4.82720970176
0.0214,1.76707830979,4.82720970176
0.0216,-1.63783721,5.18042016774
0.0218,-4.51873881611,5.18042016774
0.022,-6.61479447081,5.18042016774
0.0222,-8.22208378449,5.18042016774
0.0224,-9.71893070382,5.18042016774
0.0226,-10.9549455854,5.18042016774
0.0228,-11.8901811802,5.18042016774
0.023,-11.8525837694,5.18042016774
0.0232,-10.5813213151,5.18042016774
0.0234,-8.97168216325,5.18042016774
0.0236,-7.47483524392,5.18042016774
0.0238,-6.76283427601,5.18042016774
0.024,-6.31401518403,4.82720970176
0.0242,-6.61479447081,4.82720970176
0.0244,-7.58762747646,4.82720970176
0.0246,-8.56046048211,4.45045187138
0.0248,-10.3181394392,4.45045187138
0.025,-12.151013218,4.073694041
0.0252,-14.0238342457,4.073694041
0.0254,-16.1551374731,3.69693621062
0.0256,-18.7752070415,3.32017838024
0.0258,-22.255317383,3.32017838024
0.026,-25.9962597622,2.94342054985
0.0262,-29.8875917848,2.56666271947
0.0264,-33.1444674994,2.56666271947
0.0266,-35.7621872296,2.18990488909
0.0268,-38.0462299385,1.81314705871
0.027,-38.5702438522,1.43638922833
0.0272,-37.9334377059,1.05963139795
0.0274,-37.1485917545,1.05963139795
0.0276,-35.689342246,0.682873567566
0.0278,-34.0421056833,0.306115737185
0.028,-32.5828561748,0.306115737185
0.0282,-31.1236066664,0.306115737185
0.0284,-28.3907448655,-0.0470947287977
0.0286,-25.5474406702,-0.0470947287977
0.0288,-22.7793312966,-0.0470947287977
0.029,-19.2992209551,-0.0470947287977
0.0292,-16.6415539759,-0.0470947287977
0.0294,-14.4726533377,-0.0470947287977
0.0296,-12.7502219533,-0.0470947287977
0.0298,-12.3014028613,-0.0470947287977
0.03,-12.7878193642,-0.0470947287977
0.0302,-13.1614436345,-0.0470947287977
0.0304,-13.1990410453,-0.0470947287977
0.0306,-12.8630141859,-0.0470947287977
0.0308,-12.7878193642,-0.0470947287977
0.031,-13.3494306887,-0.0470947287977
0.0312,-14.3598611052,-0.0470947287977
0.0314,-15.8943054354,-0.0470947287977
0.0316,-18.4767775929,-0.0470947287977
0.0318,-21.8440957018,-0.0470947287977
0.032,-24.8001921296,-0.0470947287977
0.0322,-26.5578710867,-0.0470947287977
0.0324,-26.6706633192,-0.0470947287977
0.0326,-26.1090519947,-0.0470947287977
0.0328,-25.0610241674,-0.0470947287977
0.033,-24.1257885726,0.306115737185
0.0332,-24.01299634,-0.0470947287977
0.0334,-23.8649565348,-0.0470947287977
0.0336,-24.3513730376,-0.0470947287977
0.0338,-25.5098432594,-0.0470947287977
0.034,-25.9962597622,-0.0470947287977
0.0342,-24.8753869513,-0.0470947287977
0.0344,-22.4785520099,-0.0470947287977
0.0346,-19.522455582,-0.0470947287977
0.0348,-16.2303322948,-0.0470947287977
0.035,-13.2366384561,-0.0470947287977
0.0352,-11.1781802123,-0.0470947287977
0.0354,-10.3181394392,-0.0470947287977
0.0356,-10.5437239043,-0.0470947287977
0.0358,-11.7397915368,-0.0470947287977
0.036,-12.6374297208,-0.0470947287977
0.0362,-12.7502219533,-0.0470947287977
0.0364,-12.4893899156,-0.0470947287977
0.0366,-11.6645967151,-0.0470947287977
0.0368,-10.1677497958,-0.0470947287977
0.037,-9.00927957409,-0.0470947287977
0.0372,-8.85888993071,-0.0470947287977
0.0374,-9.15966921748,-0.0470947287977
0.0376,-10.1677497958,-0.0470947287977
0.0378,-11.4037646774,-0.0470947287977
0.038,-11.7773889477,-0.0470947287977
0.0382,-12.0781682344,-0.0470947287977
0.0384,-11.6293491425,-0.0470947287977
0.0386,-10.0573074014,-0.0470947287977
0.0388,-8.18683621183,-0.0470947287977
0.039,-6.61479447081,-0.0470947287977
0.0392,-5.679558876,-0.0470947287977
0.0394,-4.85476567555,-0.0470947287977
0.0396,-4.18271195667,-0.0470947287977
0.0398,-3.80673784821,-0.0470947287977
0.04,-3.20987895102,-0.0470947287977
0.0402,-2.68586503735,-0.0470947287977
0.0404,-1.60023979915,-0.0470947287977
0.0406,0.0469967635581,-0.0470947287977
0.0408,1.28066180696,-0.0470947287977
0.041,1.95506536402,-0.0470947287977
0.0412,1.87987054233,-0.0470947287977
0.0414,1.61903850458,-0.0470947287977
0.0416,1.28066180696,-0.0470947287977
0.0418,0.794245304132,-0.0470947287977
0.042,0.681453071593,-0.0470947287977
0.0422,0.681453071593,-0.0470947287977
0.0424,1.0950245909,-0.0470947287977
0.0426,1.76707830979,-0.0470947287977
0.0428,2.21589740177,-0.0470947287977
0.043,2.59187151023,-0.0470947287977
0.0432,2.17829999092,-0.0470947287977
0.0434,1.72948089894,-0.0470947287977
0.0436,1.16786957442,-0.0470947287977
0.0438,0.719050482439,-0.0470947287977
0.044,0.907037536672,-0.0470947287977
0.0442,1.28066180696,-0.0470947287977
0.0444,1.84227313148,-0.0470947287977
0.0446,2.81510613713,-0.0470947287977
0.0448,3.52710710504,-0.0470947287977
0.045,4.16156341307,-0.0470947287977
0.0452,4.46234269984,-0.0470947287977
0.0454,4.46234269984,-0.0470947287977
0.0456,4.31195305646,-0.0470947287977
0.0458,4.16156341307,-0.0470947287977
0.046,4.424745289,-0.0470947287977
0.0462,4.76077214844,-0.0470947287977
0.0464,5.13439641873,-0.0470947287977
0.0466,5.80879997578,-0.0470947287977
0.0468,6.25761906776,-0.0470947287977
0.047,6.70643815974,-0.0470947287977
0.0472,7.19285466257,-0.0470947287977
0.0474,7.41843912765,-0.0470947287977
0.0476,7.71686857624,-0.0470947287977
0.0478,8.12809025738,-0.0470947287977
0.048,8.65210417105,-0.0470947287977
0.0482,9.25131290642,-0.0470947287977
0.0484,9.73772940924,-0.0470947287977
0.0486,10.0737562687,-0.0470947287977
0.0488,10.4497303771,-0.0470947287977
0.049,10.93614688,-0.0470947287977
0.0492,11.1969789177,-0.0470947287977
0.0494,11.3097711503,-0.0470947287977
0.0496,11.4954083663,-0.0470947287977
0.0498,11.6833954206,-0.0470947287977
0.05,11.8713824748,-0.0470947287977
0.0502,12.0570196908,-0.0470947287977
0.0504,12.0570196908,0.306115737185
0.0506,11.8713824748,-0.0470947287977
0.0508,11.9818248691,-0.0470947287977
0.051,12.2074093342,-0.0470947287977
0.0512,12.3202015668,-0.0470947287977
0.0514,12.5058387828,-0.0470947287977
0.0516,12.6938258371,-0.0470947287977
0.0518,12.8442154804,-0.0470947287977
0.052,13.0674501073,-0.0470947287977
0.0522,13.2554371616,-0.0470947287977
0.0524,13.6290614319,-0.0470947287977
0.0526,13.9274908805,-0.0470947287977
0.0528,14.1906727564,-0.0470947287977
0.053,14.3786598106,-0.0470947287977
0.0532,14.6394918484,-0.0470947287977
0.0534,14.937921297,-0.0470947287977
0.0536,14.9755187078,-0.0470947287977
0.0538,14.8650763134,-0.0470947287977
0.054,14.6018944375,-0.0470947287977
0.0542,14.0778805238,-0.0470947287977
0.0544,13.7418536644,-0.0470947287977
0.0546,13.2930345724,-0.0470947287977
0.0548,12.8442154804,-0.0470947287977
0.055,12.3953963885,-0.0470947287977
0.0552,11.8337850639,-0.0470947287977
0.0554,11.384965972,-0.0470947287977
0.0556,10.5977701824,-0.0470947287977
0.0558,9.88811905263,-0.0470947287977
0.056,9.13852067388,-0.0470947287977
0.0562,8.20328507907,-0.0470947287977
0.0564,7.26804948426,-0.0470947287977
0.0566,6.25761906776,-0.0470947287977
0.0568,5.73360515409,-0.0470947287977
0.057,5.3599808838,-0.0470947287977
0.0572,4.94875920267,-0.0470947287977
0.0574,4.61038250505,-0.0470947287977
0.0576,4.12396600223,-0.0470947287977
0.0578,3.6375494994,-0.0470947287977
0.058,3.26392522911,-0.0470947287977
0.0582,2.70231390459,-0.0470947287977
0.0584,2.06785759656,-0.0470947287977
0.0586,1.3934540395,-0.0470947287977
0.0588,0.719050482439,-0.0470947287977
0.059,0.0469967635581,-0.0470947287977
0.0592,-0.888238831249,-0.0470947287977
0.0594,-1.67543462085,-0.0470947287977
0.0596,-2.68586503735,-0.0470947287977
0.0598,-3.80673784821,-0.0470947287977
0.06,-5.00515531894,-0.0470947287977
0.0602,-6.20357278967,-0.0470947287977
0.0604,-7.24925077884,-0.0470947287977
0.0606,-8.25968119534,-0.0470947287977
0.0608,-9.23251420099,-0.0470947287977
0.061,-10.2053472066,-0.0470947287977
0.0612,-11.2909724448,-0.0470947287977
0.0614,-12.1886106288,-0.0470947287977
0.0616,-12.9758064184,-0.0470947287977
0.0618,-13.7982497807,-0.0470947287977
0.062,-14.4350559269,-0.0470947287977
0.0622,-14.8838750189,-0.0470947287977
0.0624,-15.1071096458,-0.0470947287977
0.0626,-14.9966672514,-0.0470947287977
0.0628,-14.9590698406,-0.0470947287977
0.063,-14.6582905538,-0.0470947287977
0.0632,-14.397458516,-0.0470947287977
0.0634,-14.4726533377,-0.0470947287977
0.0636,-14.7334853755,-0.0470947287977
0.0638,-14.6958879646,-0.0470947287977
0.064,-14.5830957321,-0.0470947287977
0.0642,-14.5478481594,-0.0470947287977
0.0644,-14.4350559269,-0.0470947287977
0.0646,-14.397458516,-0.0470947287977
0.0648,-14.4726533377,-0.0470947287977
0.065,-14.5478481594,-0.0470947287977
0.0652,-14.7710827863,-0.0470947287977
0.0654,-14.9966672514,-0.0470947287977
0.0656,-15.3326941108,-0.0470947287977
0.0658,-15.6687209703,-0.0470947287977
0.066,-15.8191106137,-0.0470947287977
0.0662,-15.8943054354,-0.0470947287977
0.0664,-15.7815132028,-0.0470947287977
0.0666,-15.5206811651,-0.0470947287977
0.0668,-15.2950967,-0.0470947287977
0.067,-15.1447070566,-0.0470947287977
0.0672,-14.846277608,-0.0470947287977
0.0674,-14.3222636943,-0.0470947287977
0.0676,-13.7606523698,-0.0470947287977
0.0678,-13.0510012401,-0.0470947287977
0.068,-12.151013218,-0.0470947287977
0.0682,-11.1053352288,-0.0470947287977
0.0684,-10.0197099906,-0.0470947287977
0.0686,-8.97168216325,-0.0470947287977
0.0688,-7.84845951421,-0.0470947287977
0.069,-6.9132239194,-0.0470947287977
0.0692,-6.27641777319,-0.0470947287977
0.0694,-5.71715628685,-0.0470947287977
0.0696,-5.11794755148,-0.0470947287977
0.0698,-4.55633622696,-0.0470947287977
0.07,-4.10751713498,-0.0470947287977
0.0702,-3.62110063215,-0.0470947287977
0.0704,-3.47071098877,-0.0470947287977
0.0706,-3.43311357792,-0.0470947287977
0.0708,-3.28272393454,-0.0470947287977
0.071,-3.32032134538,-0.0470947287977
0.0712,-3.35791875623,-0.0470947287977
0.0714,-3.47071098877,-0.0470947287977
0.0716,-3.39551616707,-0.0470947287977
0.0718,-3.32032134538,-0.0470947287977
0.072,-3.17228154017,-0.0470947287977
0.0722,-2.6482676265,-0.0470947287977
0.0724,-1.97386406944,-0.0470947287977
0.0726,-1.48744756661,-0.0470947287977
0.0728,-0.850641420402,-0.0470947287977
0.073,-0.178587701521,-0.0470947287977
0.0732,0.681453071593,-0.0470947287977
0.0734,1.65428607725,-0.0470947287977
0.0736,2.73991131544,-0.0470947287977
0.0738,3.82553655363,-0.0470947287977
0.074,4.76077214844,-0.0470947287977
0.0742,5.62081292155,-0.0470947287977
0.0744,6.55604851636,-0.0470947287977
0.0746,7.19285466257,-0.0470947287977
0.0748,7.71686857624,-0.0470947287977
0.075,7.98005045217,-0.0470947287977
0.0752,8.12809025738,-0.0470947287977
0.0754,8.20328507907,-0.0470947287977
0.0756,8.09049284653,-0.0470947287977
0.0758,8.16568766822,-0.0470947287977
0.076,8.01529802484,-0.0470947287977
0.0762,7.52888152201,-0.0470947287977
0.0764,7.00721744652,-0.0470947287977
0.0766,6.52080094369,-0.0470947287977
0.0768,6.18242424607,-0.0470947287977
0.077,5.84639738663,-0.0470947287977
0.0772,5.6584103324,-0.0470947287977
0.0774,5.6584103324,-0.0470947287977
0.0776,5.73360515409,-0.0470947287977
0.0778,6.06963201353,-0.0470947287977
0.078,6.55604851636,-0.0470947287977
0.0782,7.08006243003,-0.0470947287977
0.0784,7.79206339794,-0.0470947287977
0.0786,8.42886954415,-0.0470947287977
0.0788,9.21371549557,-0.0470947287977
0.079,10.0361588578,-0.0470947287977
0.0792,10.8985494691,-0.0470947287977
0.0794,11.9818248691,-0.0470947287977
0.0796,12.7314232479,-0.0470947287977
0.0798,13.2178397507,-0.0470947287977
0.08,13.5538666102,-0.0470947287977
0.0802,13.8170484861,-0.0470947287977
0.0804,13.9274908805,-0.0470947287977
0.0806,13.7042562535,-0.0470947287977
0.0808,13.4410743776,-0.0470947287977
0.081,13.1050475182,-0.0470947287977
0.0812,12.5434361937,-0.0470947287977
0.0814,12.0570196908,-0.0470947287977
0.0816,11.4578109555,-0.0470947287977
0.0818,10.7857572366,-0.0470947287977
0.082,9.99856144699,-0.0470947287977
0.0822,9.25131290642,-0.0470947287977
0.0824,8.53931193851,-0.0470947287977
0.0826,8.05289543569,-0.0470947287977
0.0828,7.90485563048,-0.0470947287977
0.083,7.98005045217,-0.0470947287977
0.0832,8.09049284653,-0.0470947287977
0.0834,8.35367472246,-0.0470947287977
0.0836,8.80249381444,-0.0470947287977
0.0838,9.36410513896,-0.0470947287977
0.084,9.81292423094,-0.0470947287977
0.0842,10.2617433229,-0.0470947287977
0.0844,10.6729650041,-0.0470947287977
0.0846,11.121784096,-0.0470947287977
0.0848,11.4578109555,-0.0470947287977
0.085,11.9465772965,-0.0470947287977
0.0852,12.3202015668,-0.0470947287977
0.0854,12.3202015668,-0.0470947287977
0.0856,12.0570196908,-0.0470947287977
0.0858,11.4954083663,-0.0470947287977
0.086,10.8233546474,-0.0470947287977
0.0862,10.0361588578,-0.0470947287977
0.0864,9.17611808472,-0.0470947287977
0.0866,8.16568766822,-0.0470947287977
0.0868,6.81923039228,-0.0470947287977
0.087,5.58321551071,-0.0470947287977
0.0872,4.53753752154,-0.0470947287977
0.0874,3.4143148725,-0.0470947287977
0.0876,2.17829999092,-0.0470947287977
0.0878,1.13262200175,-0.0470947287977
0.088,0.122191585251,-0.0470947287977
0.0882,-0.627406793501,-0.0470947287977
0.0884,-1.18901811802,-0.0470947287977
0.0886,-1.44985015577,-0.0470947287977
0.0888,-1.48744756661,-0.0470947287977
0.089,-1.52504497746,-0.0470947287977
0.0892,-1.48744756661,-0.0470947287977
0.0894,-1.41225274492,-0.0470947287977
0.0896,-1.30181035056,-0.0470947287977
0.0898,-1.11382329633,-0.0470947287977
0.09,-1.07622588548,-0.0470947287977
0.0902,-1.07622588548,-0.0470947287977
0.0904,-1.26421293971,-0.0470947287977
0.0906,-1.48744756661,-0.0470947287977
0.0908,-1.75062944254,-0.0470947287977
0.091,-2.30989092888,-0.0470947287977
0.0912,-2.98429448594,-0.0470947287977
0.0914,-3.8819326699,-0.0470947287977
0.0916,-4.8923630864,-0.0470947287977
0.0918,-6.05318314629,-0.0470947287977
0.092,-7.21165336799,-0.0470947287977
0.0922,-8.41007083873,-0.0470947287977
0.0924,-9.60848830946,-0.0470947287977
0.0926,-10.8421533529,-0.0470947287977
0.0928,-11.8901811802,-0.0470947287977
0.093,-12.9758064184,-0.0470947287977
0.0932,-13.723054959,-0.0470947287977
0.0934,-14.2846662835,-0.0470947287977
0.0936,-14.6958879646,-0.0470947287977
0.0938,-15.0718620731,-0.0470947287977
0.094,-15.2950967,-0.0470947287977
0.0942,-15.1447070566,-0.0470947287977
0.0944,-14.8086801972,-0.0470947287977
0.0946,-14.397458516,-0.0470947287977
0.0948,-13.9110420132,-0.0470947287977
0.095,-13.4246255104,-0.0470947287977
0.0952,-12.9382090076,-0.0470947287977
0.0954,-12.4141950939,-0.0470947287977
0.0956,-11.8149863585,-0.0470947287977
0.0958,-11.2909724448,-0.0470947287977
0.096,-10.9549455854,-0.0470947287977
0.0962,-10.7293611203,-0.0470947287977
0.0964,-10.618918726,-0.0470947287977
0.0966,-10.5813213151,-0.0470947287977
0.0968,-10.5813213151,-0.0470947287977
0.097,-10.804555942,-0.0470947287977
0.0972,-11.1781802123,-0.0470947287977
0.0974,-11.6645967151,-0.0470947287977
0.0976,-12.151013218,-0.0470947287977
0.0978,-12.4141950939,-0.0470947287977
0.098,-12.6374297208,-0.0470947287977
0.0982,-12.825416775,-0.0470947287977
0.0984,-12.9382090076,-0.0470947287977
0.0986,-12.9758064184,-0.0470947287977
0.0988,-12.9382090076,-0.0470947287977
0.099,-12.7126245425,-0.0470947287977
0.0992,-12.2638054505,-0.0470947287977
0.0994,-11.5917517316,-0.0470947287977
0.0996,-10.9549455854,-0.0470947287977
0.0998,-10.2053472066,-0.0470947287977
0.1,-9.30770902269,-0.0470947287977
0.1002,-8.18683621183,-0.0470947287977
0.1004,-7.02601615194,-0.0470947287977
0.1006,-6.05318314629,-0.0470947287977
0.1008,-5.19314237317,-0.0470947287977
0.101,-4.36834917273,-0.0470947287977
0.1012,-3.58350322131,-0.0470947287977
0.1014,-2.76105985904,-0.0470947287977
0.1016,-2.01146148029,-0.0470947287977
0.1018,-1.48744756661,-0.0470947287977
0.102,-1.07622588548,-0.0470947287977
0.1022,-0.815393847734,-0.0470947287977
0.1024,-0.702601615194,-0.0470947287977
0.1026,-0.627406793501,-0.0470947287977
0.1028,-0.589809382654,-0.0470947287977
0.103,-0.665004204347,-0.0470947287977
0.1032,-0.888238831249,-0.0470947287977
0.1034,-1.00103106379,-0.0470947287977
