"Latest: Time (s)","Latest: Z-Axis Acceleration (m/s²)","Latest: Potential (mV)"
0,-57.7660719275,10.0547245983
0.0002,-57.6532796949,10.4314824287
0.0004,-57.204460603,11.1849980894
0.0006,-58.2524884303,11.1849980894
0.0008,-58.5509178789,11.1849980894
0.001,-59.4485560629,11.1849980894
0.0012,-59.2981664195,11.1849980894
0.0014,-58.1396961978,11.1849980894
0.0016,-57.2796554246,11.1849980894
0.0018,-56.941278727,10.8082402591
0.002,-55.8204059162,10.4314824287
0.0022,-54.471598802,10.4314824287
0.0024,-54.6971832671,10.0547245983
0.0026,-55.2587945916,9.32475630194
0.0028,-55.2963920025,8.94799847156
0.003,-55.1084049483,8.57124064118
0.0032,-53.7619476723,8.1944828108
0.0034,-51.367462569,7.44096715003
0.0036,-47.8121574059,7.06420931965
0.0038,-44.2192548318,6.31069365889
0.004,-40.8143393121,5.93393582851
0.0042,-36.6974228244,5.18042016774
0.0044,-32.994077856,4.82720970176
0.0046,-28.7291215631,4.45045187138
0.0048,-23.0025659235,4.073694041
0.005,-16.4935141707,3.69693621062
0.0052,-9.12207180663,3.32017838024
0.0054,-1.97386406944,2.94342054985
0.0056,5.62081292155,2.56666271947
0.0058,13.4786717885,2.18990488909
0.006,20.7020743474,1.81314705871
0.0062,27.1382811166,1.43638922833
0.0064,32.4512652369,1.05963139795
0.0066,37.0522483892,1.05963139795
0.0068,40.9435804118,1.05963139795
0.007,44.2004561264,1.05963139795
0.0072,47.0061629108,1.05963139795
0.0074,49.3254531924,1.05963139795
0.0076,51.4215088471,1.05963139795
0.0078,53.1063428207,1.05963139795
0.008,54.5279949183,1.05963139795
0.0082,55.8744521943,1.05963139795
0.0084,56.8848826108,1.05963139795
0.0086,57.7825207947,1.43638922833
0.0088,58.5697165843,1.43638922833
0.009,59.2041728924,1.81314705871
0.0092,59.8409790386,1.81314705871
0.0094,60.3273955414,2.18990488909
0.0096,60.7386172225,2.56666271947
0.0098,61.074644082,2.56666271947
0.01,61.3754233687,2.94342054985
0.0102,61.5986579956,3.32017838024
0.0104,61.8618398716,3.32017838024
0.0106,62.0498269258,4.073694041
0.0108,62.197866731,4.45045187138
0.011,62.3482563744,4.82720970176
0.0112,62.4610486069,5.18042016774
0.0114,62.5362434286,5.55717799813
0.0116,62.646685823,5.93393582851
0.0118,62.6842832338,6.31069365889
0.012,62.7594780555,6.68745148927
0.0122,61.9370346933,7.06420931965
0.0124,59.9537712711,7.81772498041
0.0126,57.3712991136,8.1944828108
0.0128,54.6407871509,8.57124064118
0.013,51.1230793985,8.94799847156
0.0132,47.1565525542,9.32475630194
0.0134,43.0020386557,9.70151413232
0.0136,37.801846768,10.0547245983
0.0138,32.3008755935,10.4314824287
0.014,26.9502940624,10.4314824287
0.0142,21.6373099422,10.8082402591
0.0144,16.1739361785,11.1849980894
0.0146,10.5601727715,11.1849980894
0.0148,5.09679900788,11.1849980894
0.015,-0.178587701521,11.5617559198
0.0152,-5.00515531894,11.5617559198
0.0154,-8.82129251986,11.5617559198
0.0156,-11.8901811802,11.1849980894
0.0158,-14.6206931429,11.1849980894
0.016,-17.3535549438,11.1849980894
0.0162,-19.2240261335,10.8082402591
0.0164,-20.3848461933,10.4314824287
0.0166,-21.3200817881,10.4314824287
0.0168,-21.543316415,10.0547245983
0.017,-21.3200817881,9.70151413232
0.0172,-21.2448869665,9.32475630194
0.0174,-21.2824843773,8.94799847156
0.0176,-20.460041015,8.1944828108
0.0178,-19.4872080094,7.81772498041
0.018,-18.9631940957,7.44096715003
0.0182,-18.5872199872,7.06420931965
0.0184,-18.0256086627,6.31069365889
0.0186,-17.8775688575,5.93393582851
0.0188,-17.6519843924,5.55717799813
0.019,-17.1279704788,5.18042016774
0.0192,-16.7919436193,5.18042016774
0.0194,-17.0527756571,4.45045187138
0.0196,-17.0903730679,4.073694041
0.0198,-16.4935141707,3.32017838024
0.02,-15.6311235594,2.94342054985
0.0202,-14.4726533377,2.94342054985
0.0204,-12.9382090076,2.56666271947
0.0206,-11.3661672665,2.56666271947
0.0208,-9.90691775805,2.18990488909
0.021,-8.29727860619,1.81314705871
0.0212,-6.01558573544,1.43638922833
0.0214,-3.69629545385,1.43638922833
0.0216,-1.52504497746,1.05963139795
0.0218,0.831842714979,1.05963139795
0.022,3.56470451588,1.05963139795
0.0222,6.52080094369,1.05963139795
0.0224,9.66253458755,0.682873567566
0.0226,13.1802423399,0.682873567566
0.0228,15.9859491243,0.682873567566
0.023,18.4932264601,0.682873567566
0.0232,20.4764898823,0.306115737185
0.0234,22.0861290341,0.306115737185
0.0236,23.0965594506,0.306115737185
0.0238,23.6581707752,0.306115737185
0.024,23.9190028129,0.306115737185
0.0242,24.1069898671,0.306115737185
0.0244,24.0317950454,0.306115737185
0.0246,24.4430167266,-0.0470947287977
0.0248,24.9670306403,-0.0470947287977
0.025,25.0422254619,0.306115737185
0.0252,24.4054193157,0.306115737185
0.0254,22.6477403587,0.306115737185
0.0256,21.0756986176,0.306115737185
0.0258,19.6916439309,0.306115737185
0.026,18.1571996007,0.306115737185
0.0262,17.0715743625,0.306115737185
0.0264,16.0235465351,0.306115737185
0.0266,15.3514928163,0.306115737185
0.0268,14.7898814917,0.306115737185
0.027,14.3034649889,0.306115737185
0.0272,13.6290614319,0.306115737185
0.0274,12.6938258371,0.306115737185
0.0276,11.7961876531,-0.0470947287977
0.0278,10.5977701824,0.306115737185
0.028,9.25131290642,-0.0470947287977
0.0282,8.91528604698,-0.0470947287977
0.0284,8.87768863613,0.306115737185
0.0286,8.466466955,-0.0470947287977
0.0288,7.6792711654,-0.0470947287977
0.029,6.6688407489,-0.0470947287977
0.0292,5.32238347296,-0.0470947287977
0.0294,3.71274432109,-0.0470947287977
0.0296,1.99266277486,-0.0470947287977
0.0298,-0.0281980581349,-0.0470947287977
0.03,-2.30989092888,-0.0470947287977
0.0302,-4.25790677837,-0.0470947287977
0.0304,-5.75240385951,-0.0470947287977
0.0306,-7.32444560053,-0.0470947287977
0.0308,-9.30770902269,-0.0470947287977
0.031,-11.5165569099,-0.0470947287977
0.0312,-14.0966792293,-0.0470947287977
0.0314,-17.3911523547,-0.0470947287977
0.0316,-20.5328859985,-0.0470947287977
0.0318,-23.378540032,-0.0470947287977
0.032,-25.9586623513,-0.0470947287977
0.0322,-28.3178998819,-0.0470947287977
0.0324,-30.1507736607,-0.0470947287977
0.0326,-31.8708552069,-0.0470947287977
0.0328,-33.2925073046,-0.0470947287977
0.033,-34.4909247753,-0.0470947287977
0.0332,-35.6517448352,-0.0470947287977
0.0334,-37.484618614,-0.0470947287977
0.0336,-39.4678820361,-0.0470947287977
0.0338,-41.1879635823,-0.0470947287977
0.034,-42.160796588,-0.0470947287977
0.0342,-43.0231871993,-0.0470947287977
0.0344,-43.7704357399,-0.0470947287977
0.0346,-44.0336176158,-0.0470947287977
0.0348,-44.4072418861,-0.0470947287977
0.035,-45.0064506214,-0.0470947287977
0.0352,-45.5657121078,-0.0470947287977
0.0354,-46.2777130757,-0.0470947287977
0.0356,-47.2505460813,-0.0470947287977
0.0358,-48.1481842653,-0.0470947287977
0.036,-48.7849904115,-0.0470947287977
0.0362,-49.5322389521,-0.0470947287977
0.0364,-49.9810580441,-0.0470947287977
0.0366,-49.9458104714,-0.0470947287977
0.0368,-50.0938502766,-0.0470947287977
0.037,-50.6178641903,-0.0470947287977
0.0372,-51.4779049634,-0.0470947287977
0.0374,-51.9643214662,-0.0470947287977
0.0376,-52.0019188771,-0.0470947287977
0.0378,-52.1147111096,-0.0470947287977
0.038,-52.0395162879,-0.0470947287977
0.0382,-51.6658920176,-0.0470947287977
0.0384,-50.5050719577,-0.0470947287977
0.0386,-49.2714069143,-0.0470947287977
0.0388,-47.9625470492,-0.0470947287977
0.039,-46.202518254,-0.0470947287977
0.0392,-44.9688532106,-0.0470947287977
0.0394,-43.8080331507,-0.0470947287977
0.0396,-41.9751593719,-0.0470947287977
0.0398,-39.9918959498,-0.0470947287977
0.04,-37.484618614,-0.0470947287977
0.0402,-34.0421056833,-0.0470947287977
0.0404,-30.3364108768,-0.0470947287977
0.0406,-27.1946772329,-0.0470947287977
0.0408,-24.3513730376,-0.0470947287977
0.041,-21.2072895556,-0.0470947287977
0.0412,-18.2511931278,-0.0470947287977
0.0414,-15.8943054354,-0.0470947287977
0.0416,-13.8734446024,-0.0470947287977
0.0418,-11.9653760019,-0.0470947287977
0.042,-9.9445151689,-0.0470947287977
0.0422,-7.66282229815,-0.0470947287977
0.0424,-5.37877958923,-0.0470947287977
0.0426,-3.39551616707,-0.0470947287977
0.0428,-1.78822685339,-0.0470947287977
0.043,-0.401822328422,-0.0470947287977
0.0432,0.646205498924,-0.0470947287977
0.0434,1.35585662865,-0.0470947287977
0.0436,2.403884456,-0.0470947287977
0.0438,3.59995208855,-0.0470947287977
0.044,4.94875920267,-0.0470947287977
0.0442,6.29521647861,-0.0470947287977
0.0444,7.98005045217,-0.0470947287977
0.0446,10.0361588578,-0.0470947287977
0.0448,12.0570196908,-0.0470947287977
0.045,13.8922433078,-0.0470947287977
0.0452,15.5371300323,-0.0470947287977
0.0454,17.3700038111,-0.0470947287977
0.0456,19.5788516983,-0.0470947287977
0.0458,22.123726445,-0.0470947287977
0.046,25.2654600888,-0.0470947287977
0.0462,28.2967513383,-0.0470947287977
0.0464,30.9920157284,-0.0470947287977
0.0466,33.6849302803,-0.0470947287977
0.0468,36.0065704001,-0.0470947287977
0.047,37.7266519463,-0.0470947287977
0.0472,38.925069417,-0.0470947287977
0.0474,39.8979024227,-0.0470947287977
0.0476,40.4219163363,-0.0470947287977
0.0478,40.3843189255,-0.0470947287977
0.048,40.6827483741,-0.0470947287977
0.0482,40.9435804118,-0.0470947287977
0.0484,40.9435804118,-0.0470947287977
0.0486,40.5699561416,-0.0470947287977
0.0488,39.7475127793,-0.0470947287977
0.049,38.5490953086,-0.0470947287977
0.0492,37.3154302652,-0.0470947287977
0.0494,36.4177920812,-0.0470947287977
0.0496,35.4073616647,-0.0470947287977
0.0498,34.1713467831,-0.0470947287977
0.05,33.31130601,-0.0470947287977
0.0502,32.9752791506,-0.0470947287977
0.0504,33.0128765614,-0.0470947287977
0.0506,33.31130601,-0.0470947287977
0.0508,33.760125102,-0.0470947287977
0.051,34.3217364265,-0.0470947287977
0.0512,34.8081529293,-0.0470947287977
0.0514,35.5929988807,-0.0470947287977
0.0516,36.6786241189,-0.0470947287977
0.0518,37.7266519463,-0.0470947287977
0.052,38.8498745953,-0.0470947287977
0.0522,39.7475127793,-0.0470947287977
0.0524,40.3467215147,-0.0470947287977
0.0526,40.457163909,-0.0470947287977
0.0528,40.4219163363,-0.0470947287977
0.053,40.1963318713,-0.0470947287977
0.0532,39.4114859198,-0.0470947287977
0.0534,37.9146390005,-0.0470947287977
0.0536,36.2674024378,-0.0470947287977
0.0538,34.6201658751,-0.0470947287977
0.054,32.8248895072,-0.0470947287977
0.0542,30.6536390308,-0.0470947287977
0.0544,28.37194616,-0.0470947287977
0.0546,25.8646688242,-0.0470947287977
0.0548,23.1717542723,-0.0470947287977
0.055,20.6268795257,-0.0470947287977
0.0552,18.530823871,-0.0470947287977
0.0554,16.5475604488,-0.0470947287977
0.0556,15.0131161186,-0.0470947287977
0.0558,14.040283113,-0.0470947287977
0.056,13.2930345724,-0.0470947287977
0.0562,12.8442154804,-0.0470947287977
0.0564,13.142644929,-0.0470947287977
0.0566,13.7418536644,-0.0470947287977
0.0568,14.0778805238,-0.0470947287977
0.057,14.3410623998,-0.0470947287977
0.0572,14.6394918484,-0.0470947287977
0.0574,15.0883109403,-0.0470947287977
0.0576,15.4243377998,-0.0470947287977
0.0578,15.5747274432,-0.0470947287977
0.058,15.4243377998,-0.0470947287977
0.0582,14.7522840809,-0.0470947287977
0.0584,13.7794510752,-0.0470947287977
0.0586,12.6938258371,-0.0470947287977
0.0588,10.8985494691,-0.0470947287977
0.059,8.91528604698,-0.0470947287977
0.0592,6.40800871115,-0.0470947287977
0.0594,3.56470451588,-0.0470947287977
0.0596,0.122191585251,-0.0470947287977
0.0598,-3.35791875623,-0.0470947287977
0.06,-6.42680741657,-0.0470947287977
0.0602,-9.45809866607,-0.0470947287977
0.0604,-12.5645847373,-0.0470947287977
0.0606,-15.5206811651,-0.0470947287977
0.0608,-17.9903610901,-0.0470947287977
0.061,-19.6728452254,-0.0470947287977
0.0612,-21.2448869665,-0.0470947287977
0.0614,-22.440954599,-0.0470947287977
0.0616,-23.2657477995,-0.0470947287977
0.0618,-23.9753989292,-0.0470947287977
0.062,-24.1633859834,-0.0470947287977
0.0622,-23.9025539457,-0.0470947287977
0.0624,-23.4513850155,-0.0470947287977
0.0626,-23.0777607452,-0.0470947287977
0.0628,-22.6289416532,-0.0470947287977
0.063,-22.1801225613,-0.0470947287977
0.0632,-22.1425251504,-0.0470947287977
0.0634,-22.1425251504,-0.0470947287977
0.0636,-22.3305122046,-0.0470947287977
0.0638,-23.0401633344,-0.0470947287977
0.064,-24.276178216,-0.0470947287977
0.0642,-25.9586623513,-0.0470947287977
0.0644,-27.7186911466,-0.0470947287977
0.0646,-29.6643571579,-0.0470947287977
0.0648,-31.9460500286,-0.0470947287977
0.065,-34.3405351319,-0.0470947287977
0.0652,-37.1109943437,-0.0470947287977
0.0654,-39.8415063064,-0.0470947287977
0.0656,-42.4239784639,-0.0470947287977
0.0658,-44.4824367078,-0.0470947287977
0.066,-46.2777130757,-0.0470947287977
0.0662,-47.8497548167,-0.0470947287977
0.0664,-48.9353800549,-0.0470947287977
0.0666,-49.3841991469,-0.0470947287977
0.0668,-49.4217965577,-0.0470947287977
0.067,-48.8225878224,-0.0470947287977
0.0672,-47.774559995,-0.0470947287977
0.0674,-46.6137399351,-0.0470947287977
0.0676,-45.2672826592,-0.0470947287977
0.0678,-43.4720062913,-0.0470947287977
0.068,-41.4135480474,-0.0470947287977
0.0682,-39.2047001602,-0.0470947287977
0.0684,-36.9606047003,-0.0470947287977
0.0686,-34.6413144187,-0.0470947287977
0.0688,-32.8060908018,-0.0470947287977
0.069,-31.2739963098,-0.0470947287977
0.0692,-29.7019545687,-0.0470947287977
0.0694,-28.503537098,-0.0470947287977
0.0696,-27.7562885574,-0.0470947287977
0.0698,-27.5307040924,-0.0470947287977
0.07,-27.5683015032,-0.0470947287977
0.0702,-27.6810937357,-0.0470947287977
0.0704,-27.8314833791,-0.0470947287977
0.0706,-27.9419257735,-0.0470947287977
0.0708,-28.1675102386,-0.0470947287977
0.071,-28.4283422763,-0.0470947287977
0.0712,-28.6163293305,-0.0470947287977
0.0714,-28.2051076494,-0.0470947287977
0.0716,-27.4179118598,-0.0470947287977
0.0718,-26.2594416381,-0.0470947287977
0.072,-24.6873998971,-0.0470947287977
0.0722,-22.7041364749,-0.0470947287977
0.0724,-20.460041015,-0.0470947287977
0.0726,-17.9527636792,-0.0470947287977
0.0728,-14.8086801972,-0.0470947287977
0.073,-11.4413620882,-0.0470947287977
0.0732,-8.22208378449,-0.0470947287977
0.0734,-4.8923630864,-0.0470947287977
0.0736,-1.52504497746,-0.0470947287977
0.0738,1.80467572063,-0.0470947287977
0.074,5.32238347296,-0.0470947287977
0.0742,8.53931193851,-0.0470947287977
0.0744,11.1969789177,-0.0470947287977
0.0746,13.405826805,-0.0470947287977
0.0748,15.2011031729,-0.0470947287977
0.075,16.7731449139,-0.0470947287977
0.0752,17.8940177248,-0.0470947287977
0.0754,18.5684212818,-0.0470947287977
0.0756,18.9420455521,-0.0470947287977
0.0758,19.0924351955,-0.0470947287977
0.076,19.0172403738,-0.0470947287977
0.0762,18.9044481413,-0.0470947287977
0.0764,19.1300326063,-0.0470947287977
0.0766,19.3908646441,-0.0470947287977
0.0768,19.5412542875,-0.0470947287977
0.077,19.9148785578,-0.0470947287977
0.0772,20.5140872931,-0.0470947287977
0.0774,21.5621151205,-0.0470947287977
0.0776,22.8709749856,-0.0470947287977
0.0778,24.4430167266,-0.0470947287977
0.078,25.9774610568,-0.0470947287977
0.0782,27.5495027978,-0.0470947287977
0.0784,29.5703636308,-0.0470947287977
0.0786,31.6640694473,-0.0470947287977
0.0788,33.7225276911,-0.0470947287977
0.079,35.6681937024,-0.0470947287977
0.0792,37.5010674812,-0.0470947287977
0.0794,38.9979144005,-0.0470947287977
0.0796,40.1211370496,-0.0470947287977
0.0798,41.2067622878,-0.0470947287977
0.08,41.8811658448,-0.0470947287977
0.0802,42.02920565,-0.0470947287977
0.0804,41.6555813797,-0.0470947287977
0.0806,40.9435804118,-0.0470947287977
0.0808,39.9354998335,-0.0470947287977
0.081,38.8874720062,-0.0470947287977
0.0812,37.6890545354,-0.0470947287977
0.0814,36.3425972595,-0.0470947287977
0.0816,34.6201658751,-0.0470947287977
0.0818,32.9376817397,-0.0470947287977
0.082,31.5536270529,-0.0470947287977
0.0822,30.3176121713,-0.0470947287977
0.0824,29.1567921115,-0.0470947287977
0.0826,28.1111141223,-0.0470947287977
0.0828,27.3615157435,-0.0470947287977
0.083,26.6871121865,-0.0470947287977
0.0832,26.2382930945,-0.0470947287977
0.0834,26.2758905053,-0.0470947287977
0.0836,26.5766697921,-0.0470947287977
0.0838,26.6518646138,-0.0470947287977
0.084,26.7247095973,-0.0470947287977
0.0842,26.9126966516,-0.0470947287977
0.0844,27.1382811166,-0.0470947287977
0.0846,27.3239183327,-0.0470947287977
0.0848,27.4367105652,-0.0470947287977
0.085,27.2111261002,-0.0470947287977
0.0852,26.614267203,-0.0470947287977
0.0854,25.8646688242,-0.0470947287977
0.0856,25.1174202836,-0.0470947287977
0.0858,23.9190028129,-0.0470947287977
0.086,22.4597533044,-0.0470947287977
0.0862,20.777269169,-0.0470947287977
0.0864,18.8668507304,-0.0470947287977
0.0866,16.8835873083,-0.0470947287977
0.0868,15.0507135295,-0.0470947287977
0.087,13.2930345724,-0.0470947287977
0.0872,11.3473685611,-0.0470947287977
0.0874,9.25131290642,-0.0470947287977
0.0876,7.30564689511,-0.0470947287977
0.0878,5.39757829465,-0.0470947287977
0.088,3.71274432109,-0.0470947287977
0.0882,2.403884456,-0.0470947287977
0.0884,1.16786957442,-0.0470947287977
0.0886,0.0469967635581,-0.0470947287977
0.0888,-0.963433652942,-0.0470947287977
0.089,-1.52504497746,-0.0470947287977
0.0892,-1.78822685339,-0.0470947287977
0.0894,-2.27464335621,-0.0470947287977
0.0896,-2.72346244819,-0.0470947287977
0.0898,-3.05948930763,-0.0470947287977
0.09,-3.77149027554,-0.0470947287977
0.0902,-4.25790677837,-0.0470947287977
0.0904,-4.6691284595,-0.0470947287977
0.0906,-5.41637700007,-0.0470947287977
0.0908,-6.12837796798,-0.0470947287977
0.091,-7.10121097363,-0.0470947287977
0.0912,-8.33487601703,-0.0470947287977
0.0914,-9.49569607692,-0.0470947287977
0.0916,-10.7293611203,-0.0470947287977
0.0918,-12.2262080396,-0.0470947287977
0.092,-13.8734446024,-0.0470947287977
0.0922,-15.743915792,-0.0470947287977
0.0924,-17.6895818033,-0.0470947287977
0.0926,-19.336818366,-0.0470947287977
0.0928,-20.7584704636,-0.0470947287977
0.093,-22.3305122046,-0.0470947287977
0.0932,-23.827359124,-0.0470947287977
0.0934,-25.2114138108,-0.0470947287977
0.0936,-26.5202736759,-0.0470947287977
0.0938,-27.5683015032,-0.0470947287977
0.094,-28.3531474546,-0.0470947287977
0.0942,-28.95235619,-0.0470947287977
0.0944,-29.5515649254,-0.0470947287977
0.0946,-29.9251891956,-0.0470947287977
0.0948,-30.0003840173,-0.0470947287977
0.095,-30.0003840173,-0.0470947287977
0.0952,-29.7771493904,-0.0470947287977
0.0954,-29.5139675145,-0.0470947287977
0.0956,-29.5891623362,-0.0470947287977
0.0958,-29.7771493904,-0.0470947287977
0.096,-29.8499943739,-0.0470947287977
0.0962,-29.8499943739,-0.0470947287977
0.0964,-29.8499943739,-0.0470947287977
0.0966,-29.9627866065,-0.0470947287977
0.0968,-30.1507736607,-0.0470947287977
0.097,-30.4492031093,-0.0470947287977
0.0972,-30.6371901635,-0.0470947287977
0.0974,-30.8980222013,-0.0470947287977
0.0976,-31.1988014881,-0.0470947287977
0.0978,-31.64762058,-0.0470947287977
0.098,-32.2468293154,-0.0470947287977
0.0982,-32.7332458182,-0.0470947287977
0.0984,-32.9188830343,-0.0470947287977
0.0986,-32.9188830343,-0.0470947287977
0.0988,-32.6956484074,-0.0470947287977
0.099,-32.3572717098,-0.0470947287977
0.0992,-32.0212448503,-0.0470947287977
0.0994,-31.64762058,-0.0470947287977
0.0996,-30.8604247904,-0.0470947287977
0.0998,-29.8499943739,-0.0470947287977
0.1,-28.8395639574,-0.0470947287977
0.1002,-27.6810937357,-0.0470947287977
0.1004,-26.482676265,-0.0470947287977
0.1006,-25.0610241674,-0.0470947287977
0.1008,-23.4889824264,-0.0470947287977
0.101,-21.806498291,-0.0470947287977
0.1012,-20.1216643174,-0.0470947287977
0.1014,-18.6624148089,-0.0470947287977
0.1016,-17.3535549438,-0.0470947287977
0.1018,-15.9319028462,-0.0470947287977
0.102,-14.5102507486,-0.0470947287977
0.1022,-13.0510012401,-0.0470947287977
0.1024,-11.5541543208,-0.0470947287977
0.1026,-10.2429446175,-0.0470947287977
0.1028,-9.08447439579,-0.0470947287977
0.103,-7.99884915759,-0.0470947287977
0.1032,-6.76283427601,-0.0470947287977
0.1034,-5.60436405431,-0.0470947287977
