"Latest: Time (s)","Latest: Z-Axis Acceleration (m/s²)","Latest: Potential (mV)"
0,-54.1731693535,11.1849980894
0.0002,-58.5885152897,11.5617559198
0.0004,-62.3670550798,11.9385137502
0.0006,-65.6239307944,12.692029411
0.0008,-68.3168453463,13.0687872414
0.001,-70.6737330387,13.8223029021
0.0012,-72.61939905,14.9525763933
0.0014,-74.2666356127,16.05930252
0.0016,-74.4922200778,16.05930252
0.0018,-75.6130928887,15.6825446896
0.002,-76.8867051811,15.3057868592
0.0022,-77.5963563108,15.3057868592
0.0024,-76.9971475755,15.3057868592
0.0026,-75.6506902995,15.3057868592
0.0028,-73.8930113424,15.3057868592
0.003,-71.6841634552,14.5758185629
0.0032,-69.0288463142,14.1990607325
0.0034,-67.6424417892,13.4455450717
0.0036,-68.1664557029,12.692029411
0.0038,-69.8512896764,11.5617559198
0.004,-69.5904576387,10.8082402591
0.0042,-68.4296375788,10.4314824287
0.0044,-65.0623194699,9.70151413232
0.0046,-59.5237508845,8.94799847156
0.0048,-55.5572240402,8.1944828108
0.005,-51.2922677473,7.06420931965
0.0052,-46.3529078974,5.93393582851
0.0054,-41.9375619611,5.18042016774
0.0056,-37.3718263814,4.45045187138
0.0058,-31.4972309367,4.073694041
0.006,-22.255317383,3.32017838024
0.0062,-11.702194126,2.94342054985
0.0064,-1.67543462085,2.56666271947
0.0066,8.27847990076,2.18990488909
0.0068,16.5851578597,1.43638922833
0.007,23.6205733643,1.05963139795
0.0072,29.4951688091,0.682873567566
0.0074,34.434528659,0.306115737185
0.0076,38.6994849519,0.306115737185
0.0078,42.3299849368,0.306115737185
0.008,45.3236787755,0.306115737185
0.0082,47.9789959165,0.306115737185
0.0084,50.1878438037,0.306115737185
0.0086,52.0959124042,-0.0470947287977
0.0088,53.7032017179,-0.0470947287977
0.009,55.0896062428,0.306115737185
0.0092,56.2480764645,0.306115737185
0.0094,57.258506881,0.306115737185
0.0096,58.0833000815,0.682873567566
0.0098,58.7929512112,1.05963139795
0.01,59.4297573574,1.05963139795
0.0102,59.9913686819,1.43638922833
0.0104,60.4777851848,2.18990488909
0.0106,60.8514094551,2.56666271947
0.0108,61.1874363145,2.94342054985
0.011,61.4882156013,3.32017838024
0.0112,61.6738528173,4.073694041
0.0114,61.9370346933,4.45045187138
0.0116,62.0850744985,4.82720970176
0.0118,62.2354641418,5.55717799813
0.012,62.3482563744,6.31069365889
0.0122,62.4986460178,7.06420931965
0.0124,62.5714910013,7.44096715003
0.0126,62.6842832338,8.57124064118
0.0128,62.7218806447,8.94799847156
0.013,62.8346728772,9.70151413232
0.0132,62.8346728772,10.4314824287
0.0134,61.5986579956,11.5617559198
0.0136,57.9705078489,11.9385137502
0.0138,54.0039810046,12.692029411
0.014,49.3254531924,13.0687872414
0.0142,44.5740803967,14.1990607325
0.0144,39.1107066331,14.5758185629
0.0146,33.5368904751,14.9525763933
0.0148,26.7623070082,15.6825446896
0.015,19.205227428,16.05930252
0.0152,12.5810336045,16.4360603504
0.0154,5.17199382957,16.4360603504
0.0156,-2.49787798311,16.4360603504
0.0158,-8.70850028732,16.4360603504
0.016,-14.9966672514,16.4360603504
0.0162,-20.5328859985,16.4360603504
0.0164,-25.6602329027,16.05930252
0.0166,-29.2531354768,15.6825446896
0.0168,-32.3196742989,15.3057868592
0.017,-35.3509655484,14.9525763933
0.0172,-37.5974108465,14.5758185629
0.0174,-38.9438681224,14.1990607325
0.0176,-39.3926872144,13.4455450717
0.0178,-38.9062707116,12.3152715806
0.018,-37.8206454734,11.9385137502
0.0182,-36.4365907866,11.1849980894
0.0184,-35.0901335107,10.4314824287
0.0186,-33.442896948,9.70151413232
0.0188,-30.7123849852,8.94799847156
0.019,-27.9419257735,8.57124064118
0.0192,-25.848219957,7.44096715003
0.0194,-23.4161374428,7.06420931965
0.0196,-20.6080808202,6.31069365889
0.0198,-18.7376096306,5.55717799813
0.02,-16.7919436193,4.45045187138
0.0202,-14.0966792293,4.45045187138
0.0204,-11.4413620882,3.69693621062
0.0206,-9.57089089861,2.94342054985
0.0208,-7.24925077884,2.56666271947
0.021,-4.44354399442,2.18990488909
0.0212,-1.22661552887,1.81314705871
0.0214,1.76707830979,1.05963139795
0.0216,4.57513493238,1.05963139795
0.0218,6.85682780313,1.05963139795
0.022,9.06332585218,0.682873567566
0.0222,11.4954083663,0.306115737185
0.0224,13.8546458969,0.306115737185
0.0226,15.8379093191,0.306115737185
0.0228,18.4556290493,0.306115737185
0.023,21.0005037959,0.306115737185
0.0232,23.695768186,-0.0470947287977
0.0234,26.2006956837,-0.0470947287977
0.0236,28.2591539275,0.306115737185
0.0238,31.4408348204,0.306115737185
0.024,33.5721380477,-0.0470947287977
0.0242,34.6201658751,-0.0470947287977
0.0244,36.1546102053,-0.0470947287977
0.0246,37.0522483892,-0.0470947287977
0.0248,38.2130684491,-0.0470947287977
0.025,39.2986936873,-0.0470947287977
0.0252,39.5595257251,0.306115737185
0.0254,39.373888509,-0.0470947287977
0.0256,39.2234988656,-0.0470947287977
0.0258,39.9354998335,0.306115737185
0.026,39.2234988656,0.306115737185
0.0262,37.0522483892,0.306115737185
0.0264,35.2945694322,0.306115737185
0.0266,32.6744998638,0.306115737185
0.0268,29.5327662199,0.306115737185
0.027,26.3134879162,0.306115737185
0.0272,23.2821966667,0.306115737185
0.0274,21.1508934393,0.682873567566
0.0276,18.9796429629,0.306115737185
0.0278,16.2867284111,0.682873567566
0.028,13.5162691993,0.682873567566
0.0282,11.2721737394,0.682873567566
0.0284,8.95288345782,0.682873567566
0.0286,6.29521647861,0.682873567566
0.0288,4.05112101871,1.05963139795
0.029,1.61903850458,0.682873567566
0.0292,0.0845941744046,0.682873567566
0.0294,-0.364224917575,0.682873567566
0.0296,-1.52504497746,0.682873567566
0.0298,-3.02189189679,0.682873567566
0.03,-4.6691284595,0.682873567566
0.0302,-6.46440482742,0.306115737185
0.0304,-8.56046048211,0.306115737185
0.0306,-10.5061264934,0.306115737185
0.0308,-12.0029734127,0.306115737185
0.031,-13.7606523698,0.306115737185
0.0312,-15.1823044675,-0.0470947287977
0.0314,-16.7543462085,-0.0470947287977
0.0316,-19.336818366,-0.0470947287977
0.0318,-21.6561086476,-0.0470947287977
0.032,-24.461815432,-0.0470947287977
0.0322,-28.3907448655,-0.0470947287977
0.0324,-32.3572717098,-0.0470947287977
0.0326,-36.2862011432,-0.0470947287977
0.0328,-39.8415063064,-0.0470947287977
0.033,-42.8727975559,-0.0470947287977
0.0332,-45.7161017512,-0.0470947287977
0.0334,-48.8601852332,-0.0470947287977
0.0336,-52.1523085205,-0.0470947287977
0.0338,-55.0708075374,-0.0470947287977
0.034,-58.3629308247,-0.0470947287977
0.0342,-61.1709874473,-0.0470947287977
0.0344,-63.0790560477,-0.0470947287977
0.0346,-65.0623194699,-0.0470947287977
0.0348,-66.3335819241,-0.0470947287977
0.035,-67.2688175189,-0.0470947287977
0.0352,-68.1664557029,-0.0470947287977
0.0354,-68.0184158977,-0.0470947287977
0.0356,-67.5319993949,-0.0470947287977
0.0358,-67.4568045732,-0.0470947287977
0.036,-67.1936226972,-0.0470947287977
0.0362,-66.5591663892,-0.0470947287977
0.0364,-66.1831922807,-0.0470947287977
0.0366,-65.5863333835,-0.0470947287977
0.0368,-64.8367350048,-0.0470947287977
0.037,-65.024722059,-0.0470947287977
0.0372,-65.6615282052,-0.0470947287977
0.0374,-65.5863333835,-0.0470947287977
0.0376,-65.6967757779,-0.0470947287977
0.0378,-65.7719705996,-0.0470947287977
0.038,-65.5863333835,-0.0470947287977
0.0382,-65.6615282052,-0.0470947287977
0.0384,-65.922360243,-0.0470947287977
0.0386,-66.4463741567,-0.0470947287977
0.0388,-66.7824010161,-0.0470947287977
0.039,-66.8199984269,-0.0470947287977
0.0392,-67.045582892,-0.0470947287977
0.0394,-67.3440123406,-0.0470947287977
0.0396,-66.7824010161,-0.0470947287977
0.0398,-65.024722059,-0.0470947287977
0.04,-63.1918482803,-0.0470947287977
0.0402,-60.7950133388,-0.0470947287977
0.0404,-57.9893065544,-0.0470947287977
0.0406,-55.9308483105,-0.0470947287977
0.0408,-52.450737969,-0.0470947287977
0.041,-47.3633383139,-0.0470947287977
0.0412,-42.4239784639,-0.0470947287977
0.0414,-37.035799522,-0.0470947287977
0.0416,-30.973217023,-0.0470947287977
0.0418,-25.5474406702,-0.0470947287977
0.042,-20.6456782311,-0.0470947287977
0.0422,-16.418319349,-0.0470947287977
0.0424,-12.8630141859,-0.0470947287977
0.0426,-9.75652811467,-0.0470947287977
0.0428,-6.61479447081,-0.0470947287977
0.043,-3.73389286469,-0.0470947287977
0.0432,-0.401822328422,-0.0470947287977
0.0434,2.96549578052,-0.0470947287977
0.0436,5.88399479748,-0.0470947287977
0.0438,8.35367472246,-0.0470947287977
0.044,10.0737562687,-0.0470947287977
0.0442,10.6353675932,-0.0470947287977
0.0444,10.2993407338,-0.0470947287977
0.0446,9.81292423094,-0.0470947287977
0.0448,9.6249371767,-0.0470947287977
0.045,9.88811905263,-0.0470947287977
0.0452,11.384965972,-0.0470947287977
0.0454,13.591464021,-0.0470947287977
0.0456,15.8003119082,-0.0470947287977
0.0458,18.8668507304,-0.0470947287977
0.046,22.5349481261,-0.0470947287977
0.0462,25.9774610568,-0.0470947287977
0.0464,29.1567921115,-0.0470947287977
0.0466,31.9648487341,-0.0470947287977
0.0468,35.1817771996,-0.0470947287977
0.047,39.1483040439,-0.0470947287977
0.0472,42.7788040288,-0.0470947287977
0.0474,45.7724978674,-0.0470947287977
0.0476,48.3150227759,-0.0470947287977
0.0478,50.561468074,-0.0470947287977
0.048,52.3943418528,-0.0470947287977
0.0482,53.9663835938,-0.0470947287977
0.0484,55.3128408697,-0.0470947287977
0.0486,56.4736609296,-0.0470947287977
0.0488,57.4088965244,-0.0470947287977
0.049,57.9705078489,-0.0470947287977
0.0492,58.156145065,-0.0470947287977
0.0494,58.1937424759,-0.0470947287977
0.0496,57.521688757,-0.0470947287977
0.0498,56.1000366593,-0.0470947287977
0.05,53.8535913613,-0.0470947287977
0.0502,51.6470933122,-0.0470947287977
0.0504,49.3630506033,-0.0470947287977
0.0506,47.2693447868,-0.0470947287977
0.0508,45.6973030457,-0.0470947287977
0.051,44.5364829859,-0.0470947287977
0.0512,44.2004561264,-0.0470947287977
0.0514,44.5364829859,-0.0470947287977
0.0516,45.4717185807,-0.0470947287977
0.0518,46.6701360514,-0.0470947287977
0.052,47.6053716462,-0.0470947287977
0.0522,48.5782046519,-0.0470947287977
0.0524,49.7014273009,-0.0470947287977
0.0526,51.1606768094,-0.0470947287977
0.0528,52.7679661231,-0.0470947287977
0.053,54.3400078641,-0.0470947287977
0.0532,55.7240625509,-0.0470947287977
0.0534,56.8848826108,-0.0470947287977
0.0536,57.8201182056,-0.0470947287977
0.0538,58.156145065,-0.0470947287977
0.054,57.4464939353,-0.0470947287977
0.0542,55.7992573726,-0.0470947287977
0.0544,53.4047722693,-0.0470947287977
0.0546,50.3734810198,-0.0470947287977
0.0548,46.5573438189,-0.0470947287977
0.055,42.5156221529,-0.0470947287977
0.0552,38.8498745953,-0.0470947287977
0.0554,35.2569720213,-0.0470947287977
0.0556,31.5912244638,-0.0470947287977
0.0558,27.7727374247,-0.0470947287977
0.056,23.8438079912,-0.0470947287977
0.0562,20.1404630228,-0.0470947287977
0.0564,17.1091717733,-0.0470947287977
0.0566,14.5642970267,-0.0470947287977
0.0568,12.5058387828,-0.0470947287977
0.057,10.8985494691,-0.0470947287977
0.0572,10.1489510904,-0.0470947287977
0.0574,9.99856144699,-0.0470947287977
0.0576,10.5977701824,-0.0470947287977
0.0578,11.3473685611,-0.0470947287977
0.058,12.1322145125,-0.0470947287977
0.0582,12.8442154804,-0.0470947287977
0.0584,13.2930345724,-0.0470947287977
0.0586,13.6666588427,-0.0470947287977
0.0588,14.2282701672,-0.0470947287977
0.059,14.489102205,-0.0470947287977
0.0592,13.9650882913,-0.0470947287977
0.0594,12.8066180696,-0.0470947287977
0.0596,11.0465892743,-0.0470947287977
0.0598,8.65210417105,-0.0470947287977
0.06,5.62081292155,-0.0470947287977
0.0602,1.95506536402,-0.0470947287977
0.0604,-2.34748833973,-0.0470947287977
0.0606,-7.10121097363,-0.0470947287977
0.0608,-11.6293491425,-0.0470947287977
0.061,-16.0070976679,-0.0470947287977
0.0612,-20.1216643174,-0.0470947287977
0.0614,-24.1257885726,-0.0470947287977
0.0616,-27.8667309518,-0.0470947287977
0.0618,-31.422036115,-0.0470947287977
0.062,-34.5285221862,-0.0470947287977
0.0622,-37.221436738,-0.0470947287977
0.0624,-39.2047001602,-0.0470947287977
0.0626,-40.4407150418,-0.0470947287977
0.0628,-41.3383532257,-0.0470947287977
0.063,-41.711977496,-0.0470947287977
0.0632,-41.3007558149,-0.0470947287977
0.0634,-40.2903253984,-0.0470947287977
0.0636,-39.0190629441,-0.0470947287977
0.0638,-37.8206454734,-0.0470947287977
0.064,-36.9230072894,-0.0470947287977
0.0642,-36.3237985541,-0.0470947287977
0.0644,-35.8373820512,-0.0470947287977
0.0646,-35.6141474243,-0.0470947287977
0.0648,-36.0629665163,-0.0470947287977
0.065,-37.0733969328,-0.0470947287977
0.0652,-38.4950490305,-0.0470947287977
0.0654,-40.4783124526,-0.0470947287977
0.0656,-42.9103949667,-0.0470947287977
0.0658,-45.4928671243,-0.0470947287977
0.066,-48.2609764978,-0.0470947287977
0.0662,-51.1042806931,-0.0470947287977
0.0664,-54.5091962129,-0.0470947287977
0.0666,-57.6532796949,-0.0470947287977
0.0668,-60.4589864794,-0.0470947287977
0.067,-62.7782767609,-0.0470947287977
0.0672,-64.6510977887,-0.0470947287977
0.0674,-66.1479447081,-0.0470947287977
0.0676,-67.2312201081,-0.0470947287977
0.0678,-67.8304288434,-0.0470947287977
0.068,-67.3816097515,-0.0470947287977
0.0682,-66.0351524755,-0.0470947287977
0.0684,-64.2375262694,-0.0470947287977
0.0686,-61.880638577,-0.0470947287977
0.0688,-59.1501266143,-0.0470947287977
0.069,-56.2316275973,-0.0470947287977
0.0692,-52.5259327907,-0.0470947287977
0.0694,-48.7097955898,-0.0470947287977
0.0696,-45.2672826592,-0.0470947287977
0.0698,-42.0879516045,-0.0470947287977
0.07,-39.2047001602,-0.0470947287977
0.0702,-36.8102150569,-0.0470947287977
0.0704,-34.7517568131,-0.0470947287977
0.0706,-33.0316752668,-0.0470947287977
0.0708,-31.64762058,-0.0470947287977
0.071,-30.7123849852,-0.0470947287977
0.0712,-30.2635658933,-0.0470947287977
0.0714,-30.2259684824,-0.0470947287977
0.0716,-29.9251891956,-0.0470947287977
0.0718,-29.626759747,-0.0470947287977
0.072,-29.8499943739,-0.0470947287977
0.0722,-30.1507736607,-0.0470947287977
0.0724,-30.1883710716,-0.0470947287977
0.0726,-29.9251891956,-0.0470947287977
0.0728,-29.1027458334,-0.0470947287977
0.073,-27.6434963249,-0.0470947287977
0.0732,-25.6978303136,-0.0470947287977
0.0734,-23.378540032,-0.0470947287977
0.0736,-20.3472487825,-0.0470947287977
0.0738,-16.7543462085,-0.0470947287977
0.074,-12.6750271316,-0.0470947287977
0.0742,-8.18683621183,-0.0470947287977
0.0744,-3.62110063215,-0.0470947287977
0.0746,1.01982976921,-0.0470947287977
0.0748,5.47277311634,-0.0470947287977
0.075,9.85052164178,-0.0470947287977
0.0752,14.4515047941,-0.0470947287977
0.0754,18.8292533196,-0.0470947287977
0.0756,22.4597533044,-0.0470947287977
0.0758,25.5662393756,-0.0470947287977
0.076,28.3343487492,-0.0470947287977
0.0762,30.392806993,-0.0470947287977
0.0764,32.0400435558,-0.0470947287977
0.0766,33.31130601,-0.0470947287977
0.0768,33.7225276911,-0.0470947287977
0.077,33.6849302803,-0.0470947287977
0.0772,33.6473328694,-0.0470947287977
0.0774,33.6097354586,-0.0470947287977
0.0776,33.5721380477,-0.0470947287977
0.0778,33.6097354586,-0.0470947287977
0.078,33.5368904751,-0.0470947287977
0.0782,33.4992930642,-0.0470947287977
0.0784,33.6849302803,-0.0470947287977
0.0786,34.3593338373,-0.0470947287977
0.0788,35.5929988807,-0.0470947287977
0.079,37.353027676,-0.0470947287977
0.0792,39.1107066331,-0.0470947287977
0.0794,41.2443596986,-0.0470947287977
0.0796,43.864429267,-0.0470947287977
0.0798,46.5573438189,-0.0470947287977
0.08,49.0270237438,-0.0470947287977
0.0802,51.1606768094,-0.0470947287977
0.0804,52.8807583556,-0.0470947287977
0.0806,54.3776052749,-0.0470947287977
0.0808,55.7240625509,-0.0470947287977
0.081,56.8096877891,-0.0470947287977
0.0812,57.707325973,-0.0470947287977
0.0814,58.4193269409,-0.0470947287977
0.0816,58.6425615678,-0.0470947287977
0.0818,58.0081052598,-0.0470947287977
0.082,56.9600774324,-0.0470947287977
0.0822,55.5760227457,-0.0470947287977
0.0824,53.5927593235,-0.0470947287977
0.0826,51.2711192037,-0.0470947287977
0.0828,48.3902175976,-0.0470947287977
0.083,45.6973030457,-0.0470947287977
0.0832,43.2276231208,-0.0470947287977
0.0834,41.1315674661,-0.0470947287977
0.0836,39.1483040439,-0.0470947287977
0.0838,37.4282224977,-0.0470947287977
0.084,35.780985935,-0.0470947287977
0.0842,34.3969312482,-0.0470947287977
0.0844,33.4992930642,-0.0470947287977
0.0846,33.1233189558,-0.0470947287977
0.0848,32.7496946855,-0.0470947287977
0.085,32.7120972746,-0.0470947287977
0.0852,32.862486918,-0.0470947287977
0.0854,32.862486918,-0.0470947287977
0.0856,33.1609163666,-0.0470947287977
0.0858,33.5368904751,-0.0470947287977
0.086,33.6097354586,-0.0470947287977
0.0862,33.1985137775,-0.0470947287977
0.0864,32.3008755935,-0.0470947287977
0.0866,31.2528477662,-0.0470947287977
0.0868,30.0567801336,-0.0470947287977
0.087,28.5223358034,-0.0470947287977
0.0872,26.5766697921,-0.0470947287977
0.0874,24.2197820997,-0.0470947287977
0.0876,21.3741280662,-0.0470947287977
0.0878,18.2323944224,-0.0470947287977
0.088,14.937921297,-0.0470947287977
0.0882,11.7961876531,-0.0470947287977
0.0884,8.466466955,-0.0470947287977
0.0886,4.94875920267,-0.0470947287977
0.0888,1.72948089894,-0.0470947287977
0.089,-1.11382329633,-0.0470947287977
0.0892,-3.58350322131,-0.0470947287977
0.0894,-5.45397441092,-0.0470947287977
0.0896,-7.21165336799,-0.0470947287977
0.0898,-8.9340847524,-0.0470947287977
0.09,-10.3181394392,-0.0470947287977
0.0902,-11.2909724448,-0.0470947287977
0.0904,-11.8901811802,-0.0470947287977
0.0906,-12.2262080396,-0.0470947287977
0.0908,-12.4517925047,-0.0470947287977
0.091,-12.6021821481,-0.0470947287977
0.0912,-12.825416775,-0.0470947287977
0.0914,-13.0885986509,-0.0470947287977
0.0916,-13.1990410453,-0.0470947287977
0.0918,-13.5374177429,-0.0470947287977
0.092,-14.3222636943,-0.0470947287977
0.0922,-15.4830837542,-0.0470947287977
0.0924,-16.9047358519,-0.0470947287977
0.0926,-18.5496225764,-0.0470947287977
0.0928,-20.23445655,-0.0470947287977
0.093,-22.1049277396,-0.0470947287977
0.0932,-24.5370102537,-0.0470947287977
0.0934,-27.380314449,-0.0470947287977
0.0936,-29.9627866065,-0.0470947287977
0.0938,-32.5828561748,-0.0470947287977
0.094,-35.0525360998,-0.0470947287977
0.0942,-37.3718263814,-0.0470947287977
0.0944,-39.5806742687,-0.0470947287977
0.0946,-41.6367826743,-0.0470947287977
0.0948,-43.284019237,-0.0470947287977
0.095,-44.4072418861,-0.0470947287977
0.0952,-45.079295605,-0.0470947287977
0.0954,-45.5657121078,-0.0470947287977
0.0956,-46.0521286106,-0.0470947287977
0.0958,-46.1273234323,-0.0470947287977
0.096,-45.6785043403,-0.0470947287977
0.0962,-45.0416981941,-0.0470947287977
0.0964,-43.9960202049,-0.0470947287977
0.0966,-42.8352001451,-0.0470947287977
0.0968,-41.9375619611,-0.0470947287977
0.097,-41.3007558149,-0.0470947287977
0.0972,-40.5159098635,-0.0470947287977
0.0974,-39.7663114847,-0.0470947287977
0.0976,-39.2798949819,-0.0470947287977
0.0978,-38.9814655333,-0.0470947287977
0.098,-38.8310758899,-0.0470947287977
0.0982,-39.1318551767,-0.0470947287977
0.0984,-39.3550898036,-0.0470947287977
0.0986,-39.505479447,-0.0470947287977
0.0988,-39.9542985389,-0.0470947287977
0.099,-40.6263522578,-0.0470947287977
0.0992,-41.5991852635,-0.0470947287977
0.0994,-42.4615758748,-0.0470947287977
0.0996,-43.0231871993,-0.0470947287977
0.0998,-43.2464218262,-0.0470947287977
0.1,-43.1336295936,-0.0470947287977
0.1002,-42.8352001451,-0.0470947287977
0.1004,-42.2735888205,-0.0470947287977
0.1006,-41.4887428691,-0.0470947287977
0.1008,-40.2151305767,-0.0470947287977
0.101,-38.4950490305,-0.0470947287977
0.1012,-36.6245778408,-0.0470947287977
0.1014,-34.4909247753,-0.0470947287977
0.1016,-32.1716344937,-0.0470947287977
0.1018,-29.7019545687,-0.0470947287977
0.102,-26.931495357,-0.0470947287977
0.1022,-23.7521643023,-0.0470947287977
0.1024,-20.7208730528,-0.0470947287977
0.1026,-18.1384008953,-0.0470947287977
0.1028,-15.5935261486,-0.0470947287977
0.103,-13.1990410453,-0.0470947287977
0.1032,-10.8421533529,-0.0470947287977
0.1034,-8.59805789296,-0.0470947287977
