"Latest: Time (s)","Latest: Y-Axis Acceleration 1 (m/s²)","Latest: Y-Axis Acceleration 2 (m/s²)","Latest: Y-Axis Acceleration 3 (m/s²)","Latest: Z-Axis Acceleration (m/s²)","Latest: Potential (mV)"
0,-60.8389260378,-52.472791147,-53.6202455929,-30.7197092433,10.1724614203
0.0002,-64.7479640604,-57.3751422489,-58.4285326762,-33.2985997596,10.9259770811
0.0004,-67.9247425767,-61.4169367545,-62.2100981894,-39.4529176975,11.6794927418
0.0006,-70.6805814967,-64.8591631398,-65.6617284565,-47.5354588882,12.4094610382
0.0008,-72.879552409,-67.7394413651,-68.4165723996,-54.0334847826,12.7862188686
0.001,-74.8351676171,-70.1353625991,-70.8022580254,-59.3296136719,13.5397345293
0.0012,-76.3347649292,-72.1927041886,-72.7841767416,-63.6637926201,14.6700080205
0.0014,-77.5208499377,-73.9514373417,-74.4730760434,-67.2046330775,15.4235236812
0.0016,-78.6389707406,-75.4115620584,-75.9058717625,-70.1272315503,15.4235236812
0.0018,-79.5466217452,-76.5730783387,-77.0802566595,-72.4661750026,15.4235236812
0.002,-80.2788812514,-77.6570034504,-78.0723696374,-74.4268235343,15.8002815116
0.0022,-80.8379416529,-78.5175600467,-78.95373512,-76.0091771453,15.8002815116
0.0024,-81.3268454549,-79.2299880486,-79.650521444,-77.2802480788,15.8002815116
0.0026,-81.7784785635,-79.864824882,-80.2388675122,-78.3135336335,15.8002815116
0.0028,-82.1292615605,-80.3515331208,-80.7879905093,-79.2063096463,15.0467658509
0.003,-82.4076955643,-80.7630014388,-81.1548415871,-79.3792444671,15.0467658509
0.0032,-82.6510512685,-81.1744697567,-81.5955243284,-78.4151328407,14.6700080205
0.0034,-82.7913644673,-81.4754294406,-81.7431876554,-75.5271213321,13.9164923597
0.0036,-83.0018342655,-81.6987979561,-82.146954565,-69.7165113507,13.1629766989
0.0038,-83.1399550705,-81.924517719,-82.2946178919,-64.9694505177,12.7862188686
0.004,-83.2451899696,-82.110266274,-82.5138056428,-60.0170295849,12.0562505722
0.0042,-83.3504248687,-82.2983660764,-81.3025049141,-52.8661747416,12.0562505722
0.0044,-83.3855031684,-81.6987979561,-67.4244594217,-39.6604394825,11.3027349114
0.0046,-83.4885456738,-75.0000937405,-51.5991038055,-24.4248817634,10.1724614203
0.0048,-83.4885456738,-69.0114662793,-32.6912762395,-12.7344878722,9.79570358992
0.005,-83.4885456738,-60.2178005138,-17.8580336011,-4.99565463804,8.66543009877
0.0052,-83.4885456738,-51.6851232242,-4.7506060962,5.87113716872,8.28867226839
0.0054,-83.4885456738,-41.4689527024,6.33798686074,16.3250470906,7.55870397203
0.0056,-83.4885456738,-30.8789338233,15.5161855255,24.7145475884,6.80518831126
0.0058,-83.4885456738,-18.6430416725,23.0424007202,31.454682232,6.0516726505
0.006,-83.4885456738,-5.69472151983,29.6134187687,37.0253451495,5.67491482012
0.0062,-83.4885456738,5.27149696427,34.6455080819,41.5648841974,5.29815698974
0.0064,-83.4885456738,14.7399707712,39.1976915825,45.2786594757,4.54464132898
0.0066,-83.4885456738,22.4473601775,42.8315937688,48.1688326696,4.16788349859
0.0068,-83.4885456738,29.0332045115,46.0271204532,49.6820123523,3.81467303261
0.007,-83.4885456738,34.3846438918,48.7058254934,45.3478334041,3.06115737185
0.0072,-76.1944517304,38.9507665968,50.9830708634,42.9418777087,3.06115737185
0.0074,-62.6893063469,42.769192587,52.8173262527,44.3512964988,2.68439954147
0.0076,-40.8070245168,45.9504304963,54.4716169623,47.2738949716,2.30764171109
0.0078,-22.6233109111,48.6802288797,55.8651896102,50.0257203088,2.30764171109
0.008,-7.44098432333,50.8880503112,57.004965915,52.1917289402,2.30764171109
0.0082,4.98331095077,52.8348832668,57.9947716533,53.979442651,1.9308838807
0.0084,15.4191051108,54.4431365779,58.9130529677,55.3888614412,2.30764171109
0.0086,23.6208500588,55.8280213736,59.5013990359,56.5583331673,2.30764171109
0.0088,30.4260402001,57.0271576144,60.1612695282,57.4532708654,2.30764171109
0.009,36.150380232,57.9629541317,60.6019522695,57.9699136427,2.30764171109
0.0092,40.6162862622,58.7858907675,60.9688033474,57.9699136427,2.30764171109
0.0094,44.6305591839,59.4583475613,61.4094860887,57.9699136427,2.30764171109
0.0096,47.7722594005,60.0202957212,61.6309810791,57.9699136427,2.30764171109
0.0098,50.3899775154,60.5446239206,61.9609163252,57.9699136427,2.30764171109
0.01,52.6569126334,61.06895212,62.1431882444,57.9699136427,2.30764171109
0.0102,54.4722146427,61.4428004774,62.3646832348,57.9699136427,2.68439954147
0.0104,56.0419685542,60.4317640391,55.7567493545,57.9699136427,2.68439954147
0.0106,57.1951676568,60.7303724755,43.8237067466,57.9699136427,2.68439954147
0.0108,58.2760177662,61.2547006749,37.8756433586,44.1113494348,3.06115737185
0.011,59.1836687709,61.5533091113,37.6172325364,20.7262382819,3.06115737185
0.0112,59.4292168687,61.8542687953,41.8763966227,1.53695822053,3.06115737185
0.0114,59.4292168687,62.0776373107,45.3280268898,-14.522201583,3.81467303261
0.0116,59.4292168687,62.2657371132,44.8873441484,-27.1421201364,3.81467303261
0.0118,59.4292168687,62.4514856681,42.4278268592,-37.4944308511,4.16788349859
0.012,59.4292168687,62.5643455496,45.8794571263,-40.6223894237,4.54464132898
0.0122,59.4292168687,62.7524453521,45.5126060484,-23.9449876355,4.92139915936
0.0124,59.4292168687,62.7900653126,42.0609757814,-7.60913211852,5.29815698974
0.0126,59.4292168687,62.9758138675,37.9125591903,5.73278931202,5.67491482012
0.0128,59.4292168687,62.938193907,40.7020117257,16.3250470906,6.0516726505
0.013,59.4292168687,63.0510537885,44.4097455754,24.7491345525,6.42843048088
0.0132,59.4292168687,63.088673749,47.4206931012,31.662204017,7.18194614165
0.0134,59.4292168687,63.1262937095,50.0278737173,37.1636930062,7.55870397203
0.0136,59.4292168687,63.2015336305,52.1205399287,41.66864509,7.93546180241
0.0138,59.4292168687,63.239153591,53.9571025575,45.3478334041,8.66543009877
0.014,59.4292168687,63.2015336305,55.4614227006,48.3396058052,8.66543009877
0.0142,59.4292168687,63.2767735515,56.6358075976,50.7823101501,9.04218792915
0.0144,59.4292168687,63.2767735515,57.7755839024,52.7753839607,9.41894575953
0.0146,59.4292168687,63.3496622249,57.8840241581,54.4614984642,9.79570358992
0.0148,56.8794629595,63.314393512,50.1386212125,55.801743326,9.79570358992
0.015,41.7344070651,63.3496622249,39.4537951652,52.1225550119,10.1724614203
0.0152,20.235794138,63.3496622249,28.9166324447,36.0288082442,10.5492192507
0.0154,2.19239373109,62.9758138675,17.5350200734,14.811867408,10.9259770811
0.0156,-12.8846979576,59.7945759582,3.4354795907,-3.48247495538,10.9259770811
0.0158,-25.3111856255,54.257388023,-10.6617536525,-18.4413369611,10.9259770811
0.016,-35.4312750882,47.445823926,-22.3756085095,-30.4776004941,10.9259770811
0.0162,-43.8084115347,37.4906418801,-32.1029301712,-40.2095075388,11.3027349114
0.0164,-50.5434450766,25.2171297689,-40.2174914342,-48.0499399803,11.3027349114
0.0166,-56.1274719097,13.4279746489,-46.9730886414,-53.5190036905,11.3027349114
0.0168,-60.8740043375,5.57010540069,-52.7019642785,-58.8821448229,11.3027349114
0.017,-64.7830423601,-4.15935688216,-57.5102513618,-63.2854976994,11.3027349114
0.0172,-67.9927067824,-16.4328689934,-61.0726291241,-63.7653918273,11.3027349114
0.0174,-70.7156597964,-25.9013428004,-59.6029175732,-58.916731787,11.3027349114
0.0176,-72.7743175099,-32.1509587375,-55.8582678917,-49.8744023405,11.3027349114
0.0178,-74.8351676171,-40.3474076302,-50.8654016498,-37.734377915,10.9259770811
0.018,-76.2996866295,-47.0461118457,-43.9621411156,-20.4019854928,10.9259770811
0.0182,-77.5559282374,-52.7337796229,-35.8868029239,-4.92864239495,10.5492192507
0.0184,-78.6038924409,-56.1007660872,-26.2656142784,7.79719873623,10.1724614203
0.0186,-79.5115434456,-53.8200559822,-17.1981631088,17.9398259806,10.1724614203
0.0188,-80.2438029517,-46.1103153284,-7.65080612677,25.9877802071,9.79570358992
0.019,-80.8379416529,-35.2945766863,1.63814003317,32.6241539582,9.41894575953
0.0192,-81.3268454549,-23.096304496,10.8901703614,37.9548698117,9.04218792915
0.0194,-81.7784785635,-9.73651602544,19.2239193752,41.3249371335,8.28867226839
0.0196,-82.0591049611,0.705374259269,26.3094518286,38.1948168756,8.28867226839
0.0198,-82.3726172646,8.41511491308,31.7060849801,29.1524874291,7.55870397203
0.02,-82.6181653625,10.84630486,28.879716613,15.6376311777,6.80518831126
0.0202,-82.826442767,7.59217827726,20.287556777,4.56331758585,6.80518831126
0.0204,-82.9667559658,-1.98915541114,6.40951128473,-1.69476124458,6.0516726505
0.0206,-83.1048767708,-15.0503354453,-8.34989969022,-7.06006406224,5.29815698974
0.0208,-83.2451899696,-26.5385308812,-20.8320652951,-14.3838537263,4.92139915936
0.021,-83.3504248687,-35.5202964492,-30.6724416916,-24.9761115049,4.54464132898
0.0212,-83.4205814681,-43.1547971821,-39.0800223689,-35.8083163475,4.16788349859
0.0214,-83.4885456738,-49.5525417136,-46.0917231588,-44.6128604154,3.43791520223
0.0216,-83.4885456738,-54.8663611335,-46.6431533953,-51.5583551588,3.06115737185
0.0218,-81.3268454549,-59.394863878,-41.6502871533,-57.3711268255,2.68439954147
0.022,-73.2632213119,-63.2132898681,-32.5805287443,-61.2556752394,2.30764171109
0.0222,-59.4774495308,-66.281667896,-28.5059438167,-56.3378412707,1.9308838807
0.0224,-38.5028187055,-68.9385776059,-27.7353258293,-44.9565683719,1.17736821994
0.0226,-20.6326174033,-68.9009576454,-26.3025301101,-29.1027686681,1.17736821994
0.0228,-5.90630871156,-64.3348349404,-20.502130049,-12.6653139439,0.80061038956
0.023,6.41494405718,-55.7645376903,-9.33970542857,1.57154518471,0.80061038956
0.0232,16.4648769205,-42.2190006648,2.66486160326,12.8858058405,0.80061038956
0.0234,24.4232661644,-27.9610356374,12.5052379997,22.1010701079,0.423852559179
0.0236,31.2284563057,-13.0658825292,20.6936309261,28.2921366952,0.0470947287977
0.0238,36.639284034,-0.566650654946,27.3753964699,30.0106764777,0.0470947287977
0.024,41.2455032631,9.98574826372,33.0281332041,33.2791445922,0.0470947287977
0.0242,45.0493063865,18.6312854348,37.7279800316,38.4369256248,-0.306115737185
0.0244,48.2611632026,24.8809013719,41.8048721987,42.6997689594,-0.306115737185
0.0246,50.8087247181,24.2813332516,44.116726161,45.6245291175,-0.306115737185
0.0248,52.8673824316,16.6844524792,41.5833772083,46.2773580663,-0.306115737185
0.025,54.6476061412,5.83344512415,35.0123591597,44.5220696344,0.0470947287977
0.0252,56.2173600527,-7.82730303035,27.7422475477,37.2328669345,0.0470947287977
0.0254,57.3683667615,-19.0545099904,23.0054848884,24.4400135602,-0.306115737185
0.0256,58.4514092647,-27.697695914,17.242000659,8.2079189358,0.0470947287977
0.0258,59.1836687709,-33.5358435332,10.0088048787,-8.91695170139,-0.306115737185
0.026,59.3239819696,-36.8675612845,-0.858293087804,-22.7755159093,-0.306115737185
0.0262,59.4292168687,-39.9735592728,-7.98304861237,-33.9514287084,0.0470947287977
0.0264,59.3590602693,-42.9290774191,-14.4802349975,-42.6522118837,-0.306115737185
0.0266,59.2187470706,-47.981908363,-20.979728622,-47.6370580954,-0.306115737185
0.0268,59.4292168687,-53.3709677038,-28.2867560658,-46.8480429752,0.0470947287977
0.027,59.4292168687,-58.1228389638,-35.5914762701,-41.9302090065,0.0470947287977
0.0272,58.7999998679,-62.0517735879,-42.0909698946,-36.152024304,-0.306115737185
0.0274,56.0419685542,-63.3614184626,-45.9463670713,-29.0681817039,-0.306115737185
0.0276,52.6919909331,-61.489825428,-45.50568433,-21.778979004,0.0470947287977
0.0278,46.9347649952,-55.7645376903,-41.4287921629,-16.791971107,-0.306115737185
0.028,40.0243399548,-46.4841636858,-33.4249783952,-13.9039595984,0.0470947287977
0.0282,31.7875167071,-35.2193367653,-25.0173977179,-10.8776002331,0.0470947287977
0.0284,23.969440662,-24.0297497658,-16.3906292897,-8.36572195985,-0.306115737185
0.0286,16.3267561154,-14.5636272064,-9.19434934112,-6.40723511344,-0.306115737185
0.0288,8.26313197249,-6.92912647355,-3.2832017848,-2.55511197844,-0.306115737185
0.029,-1.3680536882,-4.23459680314,-1.29897582912,3.39384585968,-0.306115737185
0.0292,-12.7114988529,-4.42034535808,-3.46547370398,8.62080082064,0.0470947287977
0.0294,-24.9954809282,-8.65023966617,-8.79058243154,11.5109740145,0.0470947287977
0.0296,-35.2229976837,-13.8511992045,-15.6200113022,13.0241536972,-0.306115737185
0.0298,-43.5628634368,-19.9903065077,-21.7872624412,11.9908681425,0.0470947287977
0.03,-50.4382101775,-26.1270625633,-28.2867560658,6.72932621732,0.0470947287977
0.0302,-56.09239361,-30.9917937047,-33.0212114856,-0.559876482585,-0.306115737185
0.0304,-60.8038477381,-35.2193367653,-39.7029770294,-10.8430132689,0.0470947287977
0.0306,-64.7128857607,-39.2611312709,-46.680069227,-23.3937578939,0.0470947287977
0.0308,-67.9247425767,-43.1547971821,-52.5543009516,-34.2951366649,-0.306115737185
0.031,-70.6805814967,-48.6543651568,-57.3648952744,-42.4101031345,0.0470947287977
0.0312,-72.879552409,-54.2315243001,-61.3656485385,-48.8757037499,0.0470947287977
0.0314,-74.8000893174,-58.7952957576,-64.9649421325,-52.6586529566,-0.306115737185
0.0316,-76.2996866295,-62.7265816292,-67.7174788361,-53.4152427979,-0.306115737185
0.0318,-77.5208499377,-65.9430882515,-70.2877436206,-53.4498297621,-0.306115737185
0.032,-78.6038924409,-68.7504778034,-72.3065781685,-53.1407087698,-0.306115737185
0.0322,-79.5466217452,-70.9959191954,-74.1431407972,-51.5237681946,0.0470947287977
0.0324,-80.2788812514,-72.792272309,-75.6105451086,-49.8398153763,0.0470947287977
0.0326,-80.8730199526,-72.3431840306,-76.4203861673,-48.3266356937,-0.306115737185
0.0328,-81.3597313609,-69.6486543602,-74.4361602116,-44.9219814077,0.0470947287977
0.033,-81.7784785635,-66.1688080145,-71.3536882619,-39.6258525184,0.0470947287977
0.0332,-82.1292615605,-62.9875701052,-67.6805630044,-33.1948388671,-0.306115737185
0.0334,-82.4076955643,-60.2554204743,-63.8251658277,-26.3855302951,0.0470947287977
0.0336,-82.6510512685,-57.5985107644,-60.9618816289,-19.1309145594,0.0470947287977
0.0338,-82.826442767,-55.8021576508,-58.8692154175,-13.627263885,-0.306115737185
0.034,-83.0018342655,-55.1297008569,-57.4387269378,-9.94807557086,0.0470947287977
0.0342,-83.1399550705,-55.3906893329,-55.82135206,-7.23083719786,0.0470947287977
0.0344,-83.2451899696,-56.4017257711,-54.4646952438,-6.95630316972,-0.306115737185
0.0346,-83.3504248687,-58.6095472026,-54.2801160851,-9.26065965788,0.0470947287977
0.0348,-83.4205814681,-61.0031171891,-54.6838829947,-12.1486711665,0.0470947287977
0.035,-83.4885456738,-63.6247581861,-56.5204456235,-15.6916733092,-0.306115737185
0.0352,-83.4556597678,-66.7683761349,-59.3837298223,-21.1585753341,-0.306115737185
0.0354,-83.4885456738,-69.3876658843,-62.9091917528,-27.005933965,0.0470947287977
0.0356,-83.4885456738,-71.5954873158,-66.2500745247,-31.9561932125,0.0470947287977
0.0358,-83.4885456738,-73.5399690238,-69.0026112284,-37.4252569227,-0.306115737185
0.036,-83.4885456738,-75.0753336615,-71.3536882619,-42.4101031345,-0.306115737185
0.0362,-83.4885456738,-76.3097386152,-73.2617753146,-45.3348632925,0.0470947287977
0.0364,-83.4885456738,-77.433634935,-75.0245062799,-47.0188161108,0.0470947287977
0.0366,-83.4885456738,-78.3670802048,-76.3465545038,-47.7062320238,0.0470947287977
0.0368,-83.4885456738,-79.1923680881,-77.5578552326,-47.1225770033,-0.306115737185
0.037,-83.4885456738,-79.7519650005,-78.4392207152,-45.7801704563,0.0470947287977
0.0372,-83.4885456738,-80.2762931999,-79.2467545344,-44.783633551,-0.306115737185
0.0374,-83.4885456738,-80.7253814783,-78.7322401296,-42.9959198402,-0.306115737185
0.0376,-83.4885456738,-81.0992298357,-76.8610689086,-40.8299112087,0.0470947287977
0.0378,-83.4885456738,-81.4001895196,-74.3992443799,-39.3513184902,-0.306115737185
0.038,-83.4885456738,-80.6501415573,-71.1321932715,-36.5303192247,-0.306115737185
0.0382,-82.3024606652,-77.9203431739,-67.4982910852,-31.5778982919,0.0470947287977
0.0384,-81.8486351629,-73.8409287078,-62.9091917528,-25.9056361672,0.0470947287977
0.0386,-82.0941832608,-68.8633376849,-57.6579146888,-20.8494543418,-0.306115737185
0.0388,-82.442773864,-63.4742783441,-52.1136182103,-15.7954342017,0.0470947287977
0.039,-82.6861295682,-58.3838274397,-47.376855551,-12.0794972382,0.0470947287977
0.0392,-82.8965993664,-53.8200559822,-43.4130181186,-10.4993053124,-0.306115737185
0.0394,-83.0697984711,-48.6919851173,-39.6314526054,-9.53519368602,0.0470947287977
0.0396,-83.0369125651,-43.7520140549,-35.7022237653,-8.67700463743,0.0470947287977
0.0398,-83.3504248687,-39.2987512314,-32.2505934982,-8.53865678073,-0.306115737185
0.04,-83.4556597678,-35.2945766863,-29.643412882,-8.5732437449,-0.306115737185
0.0402,-83.4885456738,-31.2151622202,-27.772241661,-8.33113499568,0.0470947287977
0.0404,-83.4885456738,-28.7463523127,-26.7801286832,-7.88582783192,-0.306115737185
0.0406,-82.8965993664,-27.1004790411,-25.6426596179,-7.57454515435,-0.306115737185
0.0408,-79.2659953477,-25.8261028794,-25.27580854,-7.16382495477,0.0470947287977
0.041,-73.4035345107,-24.4059493707,-25.3842487957,-7.60913211852,-0.306115737185
0.0412,-66.2826396721,-23.1691931695,-26.0833423592,-8.84777777304,-0.306115737185
0.0414,-58.1510513235,-21.7490396608,-26.0833423592,-8.88236473722,-0.306115737185
0.0416,-49.741028971,-19.5035982688,-25.6057437861,-7.71289301105,-0.306115737185
0.0418,-41.3638925245,-16.7338286774,-24.172948067,-7.06006406224,0.0470947287977
0.042,-32.7434003739,-13.3268710051,-22.2648610143,-6.68176914158,0.0470947287977
0.0422,-24.6118120253,-9.13694790506,-20.3913825538,-5.61605830793,0.0470947287977
0.0424,-17.0392840781,-4.19697684265,-18.9608940741,-4.99565463804,0.0470947287977
0.0426,-10.2340939367,1.34256234014,-17.0504997819,-4.92864239495,0.0470947287977
0.0428,-4.26420580698,7.06785007787,-14.3694875023,-3.38087574812,-0.306115737185
0.043,1.14442952763,12.3816694977,-10.8463328112,-1.24729239556,0.0470947287977
0.0432,6.23955255869,17.4697691546,-7.9092169489,1.08948937152,0.0470947287977
0.0434,10.672572683,23.0469282978,-4.67677443274,4.18502266519,-0.306115737185
0.0436,14.4763758064,28.8474559566,-0.895208919537,7.89879794349,0.0470947287977
0.0438,18.3503355292,34.0860354554,3.83924650028,11.7163341143,0.0470947287977
0.044,22.5728858553,38.6521581604,8.2829897452,15.1555753645,0.0470947287977
0.0442,27.076062579,42.618712745,12.5790696632,17.6307049883,0.0470947287977
0.0444,31.8225950068,45.8375706148,16.4344668399,18.4910557221,0.0470947287977
0.0446,37.0909171426,48.5321002852,20.5090517674,18.8001767144,-0.306115737185
0.0448,41.4537806675,50.9632902322,25.0243194363,19.6259404841,0.0470947287977
0.045,45.2926620907,52.7972633063,28.8428007813,20.9315983817,0.0470947287977
0.0452,48.3291274082,54.4078678649,32.4051785436,22.1010701079,0.0470947287977
0.0454,50.9468455231,55.7904014131,35.4899577328,23.2705418341,0.0470947287977
0.0456,53.075659836,56.9519176934,37.8018116951,24.9566563376,-0.306115737185
0.0458,54.8558835457,57.9253341712,39.4168793334,25.9186062787,0.0470947287977
0.046,56.3576732515,58.7858907675,41.0688628035,25.9531932429,0.0470947287977
0.0462,57.4736016606,59.4207276008,42.5385743544,25.7478331431,-0.306115737185
0.0464,58.5215658641,60.0202957212,43.8606225784,24.7491345525,0.0470947287977
0.0466,59.3590602693,60.5446239206,44.5204930706,23.0997686984,0.0470947287977
0.0468,59.4292168687,61.0313321595,45.7687096311,22.1010701079,0.0470947287977
0.047,59.4292168687,61.3299405959,47.787544179,21.9302969723,0.0470947287977
0.0472,59.4292168687,61.6285490323,50.1386212125,22.1010701079,0.0470947287977
0.0474,59.4292168687,61.9295087163,52.2312874239,22.7906477061,-0.306115737185
0.0476,59.4292168687,62.1904971922,53.9201867257,23.4434766549,-0.306115737185
0.0478,59.4292168687,62.3409770342,55.4614227006,23.3743027266,0.0470947287977
0.048,59.4292168687,62.4891056286,56.6011990054,24.3362526677,0.0470947287977
0.0482,59.4292168687,62.7148253916,57.6279205755,26.0223671712,-0.306115737185
0.0484,59.4292168687,62.7524453521,58.5831177216,27.5701338181,0.0470947287977
0.0486,59.4292168687,62.8276852731,59.2799040455,28.944965644,0.0470947287977
0.0488,59.4292168687,62.938193907,59.978997609,30.3543844342,0.0470947287977
