"Latest: Time (s)","Latest: Y-Axis Acceleration 1 (m/s²)","Latest: Y-Axis Acceleration 2 (m/s²)","Latest: Y-Axis Acceleration 3 (m/s²)","Latest: Z-Axis Acceleration (m/s²)","Latest: Potential (mV)"
0,,,,-60.7411941473,10.5492192507
0.0002,,,,-60.5682593264,11.3027349114
0.0004,,,,-54.7900746239,12.0562505722
0.0006,,,,-46.1930523411,12.4094610382
0.0008,,,,-40.931510416,12.7862188686
0.001,,,,-39.3167315261,12.7862188686
0.0012,,,,-38.8346757129,12.7862188686
0.0014,,,,-40.6569763878,13.1629766989
0.0016,,,,-41.7226872215,13.9164923597
0.0018,,,,-41.0352713085,13.9164923597
0.002,,,,-42.0318082138,13.9164923597
0.0022,,,,-47.3971110315,13.5397345293
0.0024,,,,-50.6634174607,13.1629766989
0.0026,,,,-51.6275290871,13.1629766989
0.0028,,,,-53.1061218056,13.1629766989
0.003,,,,-51.4200073021,12.7862188686
0.0032,,,,-47.3625240673,12.4094610382
0.0034,,,,-44.4745125587,12.0562505722
0.0036,,,,-41.378979265,11.6794927418
0.0038,,,,-34.8463664064,11.3027349114
0.004,,,,-29.5502375171,10.9259770811
0.0042,,,,-27.4166541646,10.1724614203
0.0044,,,,-22.7755159093,9.79570358992
0.0046,,,,-16.2753283296,9.41894575953
0.0048,,,,-9.80972771416,8.66543009877
0.005,,,,0.162126394571,7.93546180241
0.0052,,,,11.7855080427,7.55870397203
0.0054,,,,20.3133563971,6.80518831126
0.0056,,,,27.4663729256,6.42843048088
0.0058,,,,33.7936256843,6.0516726505
0.006,,,,38.8843944739,5.67491482012
0.0062,,,,42.803529852,5.29815698974
0.0064,,,,45.968237074,4.54464132898
0.0066,,,,48.0996587413,4.16788349859
0.0068,,,,47.8921369562,3.81467303261
0.007,,,,48.0996587413,3.43791520223
0.0072,,,,49.2345435033,3.06115737185
0.0074,,,,49.5436644956,2.68439954147
0.0076,,,,51.3313782064,2.68439954147
0.0078,,,,53.2228528097,2.30764171109
0.008,,,,54.8397933849,2.30764171109
0.0082,,,,55.9400911827,1.9308838807
0.0084,,,,56.936628088,1.9308838807
0.0086,,,,57.831565786,1.55412605032
0.0088,,,,57.7623918577,1.55412605032
0.009,,,,57.9699136427,1.17736821994
0.0092,,,,57.9699136427,1.17736821994
0.0094,,,,57.9699136427,1.17736821994
0.0096,,,,57.9699136427,1.17736821994
0.0098,,,,57.9699136427,0.80061038956
0.01,,,,57.9699136427,0.80061038956
0.0102,,,,57.9699136427,0.80061038956
0.0104,,,,57.9699136427,0.80061038956
0.0106,,,,57.9699136427,0.80061038956
0.0108,,,,54.3577375717,0.80061038956
0.011,,,,46.4135442377,0.80061038956
0.0112,,,,30.9056141757,0.80061038956
0.0114,,,,15.9121652058,0.80061038956
0.0116,,,,7.79719873623,0.80061038956
0.0118,,,,-0.112407633569,0.80061038956
0.012,,,,-8.19494882424,1.17736821994
0.0122,,,,-9.4314327935,0.80061038956
0.0124,,,,1.50237125636,1.17736821994
0.0126,,,,13.0565789761,1.17736821994
0.0128,,,,22.2394179646,1.17736821994
0.013,,,,29.5307823498,1.55412605032
0.0132,,,,35.546752431,1.55412605032
0.0134,,,,40.3975741565,1.9308838807
0.0136,,,,44.2821225704,2.30764171109
0.0138,,,,47.5138420356,2.30764171109
0.014,,,,50.1619064802,2.30764171109
0.0142,,,,52.2954898328,2.68439954147
0.0144,,,,54.0486165794,2.68439954147
0.0146,,,,55.4926223337,2.68439954147
0.0148,,,,56.5583331673,3.43791520223
0.015,,,,55.3564361623,3.81467303261
0.0152,,,,49.6820123523,3.81467303261
0.0154,,,,39.9501053075,4.16788349859
0.0156,,,,28.050027946,4.16788349859
0.0158,,,,14.8810413363,4.16788349859
0.016,,,,-0.629050410935,4.92139915936
0.0162,,,,-15.657086345,4.92139915936
0.0164,,,,-26.5238781518,4.92139915936
0.0166,,,,-34.3643105932,5.29815698974
0.0168,,,,-40.6569763878,5.29815698974
0.017,,,,-44.0270437096,5.29815698974
0.0172,,,,-44.7490465868,5.29815698974
0.0174,,,,-42.4792770628,5.67491482012
0.0176,,,,-37.1831481735,5.67491482012
0.0178,,,,-29.8247715452,5.67491482012
0.018,,,,-21.4331093623,5.67491482012
0.0182,,,,-11.7357892817,5.67491482012
0.0184,,,,-1.76393517293,6.0516726505
0.0186,,,,6.31644433248,5.67491482012
0.0188,,,,12.4383369915,5.67491482012
0.019,,,,15.7046434208,5.67491482012
0.0192,,,,16.3596340548,5.67491482012
0.0194,,,,14.2260507023,5.29815698974
0.0196,,,,11.647160186,5.29815698974
0.0198,,,,8.58621385647,5.29815698974
0.02,,,,1.57154518471,4.92139915936
0.0202,,,,-5.09941553057,4.92139915936
0.0204,,,,-8.88236473722,4.92139915936
0.0206,,,,-12.4577921588,4.16788349859
0.0208,,,,-17.6523218409,4.16788349859
0.021,,,,-23.601279679,4.16788349859
0.0212,,,,-29.5848244813,3.81467303261
0.0214,,,,-35.3262605343,3.43791520223
0.0216,,,,-40.3824423597,3.06115737185
0.0218,,,,-45.1273415075,2.68439954147
0.022,,,,-49.2885856348,2.30764171109
0.0222,,,,-51.3854203379,1.9308838807
0.0224,,,,-52.3149450001,1.9308838807
0.0226,,,,-53.4152427979,1.55412605032
0.0228,,,,-53.622764583,1.17736821994
0.023,,,,-51.2492341665,0.80061038956
0.0232,,,,-48.9448776783,0.80061038956
0.0234,,,,-47.2933501389,0.423852559179
0.0236,,,,-44.783633551,0.0470947287977
0.0238,,,,-42.7559727762,0.0470947287977
0.024,,,,-40.691563352,-0.306115737185
0.0242,,,,-38.1126728357,-0.306115737185
0.0244,,,,-35.8429033117,-0.306115737185
0.0246,,,,-34.2951366649,-0.306115737185
0.0248,,,,-31.7508331127,-0.306115737185
0.025,,,,-28.8628216041,-0.306115737185
0.0252,,,,-27.7279368421,-0.306115737185
0.0254,,,,-27.693349878,-0.306115737185
0.0256,,,,-27.693349878,-0.306115737185
0.0258,,,,-28.0024708703,-0.306115737185
0.026,,,,-28.6552998191,-0.306115737185
0.0262,,,,-28.6207128549,-0.306115737185
0.0264,,,,-28.7244737474,-0.306115737185
0.0266,,,,-29.4118896604,-0.306115737185
0.0268,,,,-29.3081287679,-0.306115737185
0.027,,,,-28.3807657909,0.0470947287977
0.0272,,,,-27.9678839061,-0.306115737185
0.0274,,,,-27.693349878,-0.306115737185
0.0276,,,,-26.4201172593,-0.306115737185
0.0278,,,,-25.1144593616,-0.306115737185
0.028,,,,-24.0465868427,-0.306115737185
0.0282,,,,-22.1896992036,-0.306115737185
0.0284,,,,-21.2277492625,-0.306115737185
0.0286,,,,-22.018926068,-0.306115737185
0.0288,,,,-22.6025810884,-0.306115737185
0.029,,,,-23.0154629733,-0.306115737185
0.0292,,,,-24.0465868427,-0.306115737185
0.0294,,,,-24.5286426559,-0.306115737185
0.0296,,,,-24.2195216636,-0.306115737185
0.0298,,,,-24.2195216636,-0.306115737185
0.03,,,,-23.8066397788,0.0470947287977
0.0302,,,,-22.3626340245,-0.306115737185
0.0304,,,,-21.0894014058,-0.306115737185
0.0306,,,,-20.3328115644,-0.306115737185
0.0308,,,,-19.6108086873,-0.306115737185
0.031,,,,-18.8888058101,-0.306115737185
0.0312,,,,-18.0306167615,-0.306115737185
0.0314,,,,-15.8624464448,-0.306115737185
0.0316,,,,-13.179795036,-0.306115737185
0.0318,,,,-11.3229073968,-0.306115737185
0.032,,,,-10.1880226348,-0.306115737185
0.0322,,,,-8.5732437449,-0.306115737185
0.0324,,,,-7.23083719786,-0.306115737185
0.0326,,,,-6.71635610575,-0.306115737185
0.0328,,,,-5.82141840772,-0.306115737185
0.033,,,,-4.79029453825,-0.306115737185
0.0332,,,,-4.65194668155,-0.306115737185
0.0334,,,,-4.17205255362,-0.306115737185
0.0336,,,,-2.96799386328,-0.306115737185
0.0338,,,,-2.96799386328,-0.306115737185
0.034,,,,-3.96453076857,-0.306115737185
0.0342,,,,-4.44658658176,-0.306115737185
0.0344,,,,-4.65194668155,-0.306115737185
0.0346,,,,-4.44658658176,-0.306115737185
0.0348,,,,-3.10418003472,0.0470947287977
0.035,,,,-1.86769606546,-0.306115737185
0.0352,,,,-1.28187935974,-0.306115737185
0.0354,,,,-0.66363737511,-0.306115737185
0.0356,,,,0.196713358746,-0.306115737185
0.0358,,,,0.745781415026,-0.306115737185
0.036,,,,1.40077204909,-0.306115737185
0.0362,,,,2.25896109769,0.0470947287977
0.0364,,,,3.49760675221,-0.306115737185
0.0366,,,,5.07996036322,-0.306115737185
0.0368,,,,7.24596899468,0.0470947287977
0.037,,,,9.65408637538,-0.306115737185
0.0372,,,,11.167266058,-0.306115737185
0.0374,,,,11.9562811783,-0.306115737185
0.0376,,,,12.6458587765,-0.306115737185
0.0378,,,,12.9203928047,0.0470947287977
0.038,,,,13.3332746895,-0.306115737185
0.0382,,,,14.3298115948,0.0470947287977
0.0384,,,,14.811867408,-0.306115737185
0.0386,,,,14.9826405436,-0.306115737185
0.0388,,,,16.0483513772,-0.306115737185
0.039,,,,16.9087021111,-0.306115737185
0.0392,,,,16.8049412186,-0.306115737185
0.0394,,,,16.8741151469,-0.306115737185
0.0396,,,,17.0470499678,-0.306115737185
0.0398,,,,16.9432890753,-0.306115737185
0.04,,,,17.1508108603,-0.306115737185
0.0402,,,,17.8036398091,0.0470947287977
0.0404,,,,18.0781738373,-0.306115737185
0.0406,,,,17.9398259806,-0.306115737185
0.0408,,,,17.769052845,0.0470947287977
0.041,,,,17.8728137375,0.0470947287977
0.0412,,,,18.0781738373,-0.306115737185
0.0414,,,,18.6294035788,-0.306115737185
0.0416,,,,19.5567665558,-0.306115737185
0.0418,,,,20.4171172896,-0.306115737185
0.042,,,,20.9661853459,-0.306115737185
0.0422,,,,21.7227751872,-0.306115737185
0.0424,,,,22.0340578648,-0.306115737185
0.0426,,,,21.8265360798,-0.306115737185
0.0428,,,,21.7919491156,-0.306115737185
0.043,,,,21.8265360798,-0.306115737185
0.0432,,,,21.8957100081,0.0470947287977
0.0434,,,,22.5139519927,-0.306115737185
0.0436,,,,23.2705418341,-0.306115737185
0.0438,,,,23.4780636191,0.0470947287977
0.044,,,,23.6488367547,-0.306115737185
0.0442,,,,23.6142497906,-0.306115737185
0.0444,,,,22.7906477061,-0.306115737185
0.0446,,,,21.7919491156,-0.306115737185
0.0448,,,,21.1391201668,-0.306115737185
0.045,,,,20.2787694329,0.0470947287977
0.0452,,,,19.3859934201,-0.306115737185
0.0454,,,,18.8693506428,-0.306115737185
0.0456,,,,18.4910557221,-0.306115737185
0.0458,,,,17.6998789166,-0.306115737185
0.046,,,,16.8741151469,-0.306115737185
0.0462,,,,16.1866992339,0.0470947287977
0.0464,,,,15.0864014361,0.0470947287977
0.0466,,,,13.9861036383,-0.306115737185
0.0468,,,,13.4024486179,-0.306115737185
0.047,,,,13.1949268328,-0.306115737185
0.0472,,,,12.6782840554,-0.306115737185
0.0474,,,,12.1983899275,-0.306115737185
0.0476,,,,11.7509210785,-0.306115737185
0.0478,,,,10.7889711374,-0.306115737185
0.048,,,,9.99779433187,-0.306115737185
0.0482,,,,9.82485951099,-0.306115737185
0.0484,,,,9.6194994112,-0.306115737185
0.0486,,,,9.24120449054,0.0470947287977
0.0488,,,,9.24120449054,-0.306115737185
0.049,,,,8.99909574131,-0.306115737185
0.0492,,,,8.34626679251,0.0470947287977
0.0494,,,,7.62426391535,-0.306115737185
0.0496,,,,6.31644433248,-0.306115737185
0.0498,,,,4.73625240673,0.0470947287977
0.05,,,,3.87590167287,-0.306115737185
0.0502,,,,3.22307272407,-0.306115737185
0.0504,,,,2.53565681109,0.0470947287977
0.0506,,,,1.98442706955,-0.306115737185
0.0508,,,,1.22783722822,-0.306115737185
0.051,,,,-0.146994597744,-0.306115737185
0.0512,,,,-1.24729239556,-0.306115737185
0.0514,,,,-2.03846920107,-0.306115737185
0.0516,,,,-3.06959307054,-0.306115737185
0.0518,,,,-4.37741265341,-0.306115737185
0.052,,,,-5.40853652288,-0.306115737185
0.0522,,,,-6.06136547169,-0.306115737185
0.0524,,,,-6.68176914158,-0.306115737185
0.0526,,,,-7.40377201873,-0.306115737185
0.0528,,,,-8.16036186006,-0.306115737185
0.053,,,,-9.19148572953,0.0470947287977
0.0532,,,,-10.6009045197,-0.306115737185
0.0534,,,,-11.4612552535,-0.306115737185
0.0536,,,,-11.9087241025,-0.306115737185
0.0538,,,,-12.5615530513,-0.306115737185
0.054,,,,-13.1127827929,0.0470947287977
0.0542,,,,-13.5256646777,-0.306115737185
0.0544,,,,-14.1439066624,-0.306115737185
0.0546,,,,-14.2476675549,-0.306115737185
0.0548,,,,-14.2476675549,-0.306115737185
0.055,,,,-14.762148647,-0.306115737185
0.0552,,,,-15.1750305318,-0.306115737185
0.0554,,,,-15.3479653527,-0.306115737185
0.0556,,,,-15.4841515241,-0.306115737185
0.0558,,,,-15.4841515241,-0.306115737185
0.056,,,,-15.7608472375,0.0470947287977
0.0562,,,,-16.584449322,-0.306115737185
0.0564,,,,-17.5139739842,0.0470947287977
0.0566,,,,-18.0976290046,-0.306115737185
0.0568,,,,-18.374324718,-0.306115737185
0.057,,,,-18.3397377538,-0.306115737185
0.0572,,,,-18.2013898971,-0.306115737185
0.0574,,,,-18.0976290046,-0.306115737185
0.0576,,,,-18.0630420404,-0.306115737185
0.0578,,,,-18.0630420404,-0.306115737185
0.058,,,,-17.926855869,-0.306115737185
0.0582,,,,-18.1322159688,-0.306115737185
0.0584,,,,-18.8888058101,-0.306115737185
0.0586,,,,-19.4054485875,-0.306115737185
0.0588,,,,-19.1655015235,-0.306115737185
0.059,,,,-18.8888058101,-0.306115737185
0.0592,,,,-18.6488587462,-0.306115737185
0.0594,,,,-18.2705638255,-0.306115737185
0.0596,,,,-18.0630420404,-0.306115737185
0.0598,,,,-18.0630420404,-0.306115737185
0.06,,,,-17.6523218409,-0.306115737185
0.0602,,,,-17.1010920993,-0.306115737185
0.0604,,,,-16.791971107,-0.306115737185
0.0606,,,,-16.5174370789,0.0470947287977
0.0608,,,,-16.1715674371,-0.306115737185
0.061,,,,-15.5533254525,-0.306115737185
0.0612,,,,-14.762148647,0.0470947287977
0.0614,,,,-14.1093196982,0.0470947287977
0.0616,,,,-13.8693726342,-0.306115737185
0.0618,,,,-13.6964378133,-0.306115737185
0.062,,,,-13.3181428927,-0.306115737185
0.0622,,,,-12.699900908,0.0470947287977
0.0624,,,,-11.8741371384,-0.306115737185
0.0626,,,,-11.2213081896,-0.306115737185
0.0628,,,,-10.7046654122,-0.306115737185
0.063,,,,-10.3263704915,-0.306115737185
0.0632,,,,-10.0172494992,-0.306115737185
0.0634,,,,-9.5697806502,-0.306115737185
0.0636,,,,-9.15689876536,-0.306115737185
0.0638,,,,-8.84777777304,0.0470947287977
0.064,,,,-8.29870971676,-0.306115737185
0.0642,,,,-7.43835898291,0.0470947287977
0.0644,,,,-6.57800824905,-0.306115737185
0.0646,,,,-5.68307055102,-0.306115737185
0.0648,,,,-4.99565463804,-0.306115737185
0.065,,,,-4.82488150243,-0.306115737185
0.0652,,,,-4.44658658176,-0.306115737185
0.0654,,,,-3.75917066878,0.0470947287977
0.0656,,,,-2.86423297075,-0.306115737185
0.0658,,,,-2.03846920107,-0.306115737185
0.066,,,,-1.04193229578,0.0470947287977
0.0662,,,,-0.077820669394,-0.306115737185
0.0664,,,,0.780368379201,-0.306115737185
0.0666,,,,1.70989304141,-0.306115737185
0.0668,,,,2.56808209,-0.306115737185
0.067,,,,3.32467193133,-0.306115737185
0.0672,,,,3.8413147087,-0.306115737185
0.0674,,,,4.56331758585,-0.306115737185
0.0676,,,,5.52742921223,-0.306115737185
0.0678,,,,6.420205225,0.0470947287977
0.068,,,,7.14220810216,-0.306115737185
0.0682,,,,7.65885087952,-0.306115737185
0.0684,,,,7.96797187184,-0.306115737185
0.0686,,,,8.24250589998,-0.306115737185
0.0688,,,,8.62080082064,-0.306115737185
0.069,,,,8.99909574131,-0.306115737185
0.0692,,,,9.4811515545,-0.306115737185
0.0694,,,,10.064806575,-0.306115737185
0.0696,,,,10.512275424,-0.306115737185
0.0698,,,,10.959744273,-0.306115737185
0.07,,,,11.5109740145,-0.306115737185
0.0702,,,,11.7509210785,-0.306115737185
0.0704,,,,11.7855080427,-0.306115737185
0.0706,,,,12.0254551066,-0.306115737185
0.0708,,,,12.2675638559,-0.306115737185
0.071,,,,12.542097884,-0.306115737185
0.0712,,,,13.0911659403,-0.306115737185
0.0714,,,,13.6078087176,0.0470947287977
0.0716,,,,13.8477557816,-0.306115737185
0.0718,,,,14.124451495,-0.306115737185
0.072,,,,14.364398559,0.0470947287977
0.0722,,,,14.6043456229,0.0470947287977
0.0724,,,,14.9156283005,-0.306115737185
0.0726,,,,15.3609354643,0.0470947287977
0.0728,,,,15.8775782416,-0.306115737185
0.073,,,,16.2904601265,-0.306115737185
0.0732,,,,16.5995811188,0.0470947287977
0.0734,,,,17.0470499678,-0.306115737185
0.0736,,,,17.2869970318,-0.306115737185
0.0738,,,,17.2524100676,0.0470947287977
0.074,,,,17.2524100676,-0.306115737185
0.0742,,,,17.2869970318,-0.306115737185
0.0744,,,,17.2178231034,-0.306115737185
0.0746,,,,17.1832361392,-0.306115737185
0.0748,,,,17.081636932,-0.306115737185
0.075,,,,16.6687550471,0.0470947287977
0.0752,,,,16.0159260983,0.0470947287977
0.0754,,,,15.2939232212,-0.306115737185
0.0756,,,,14.5697586588,-0.306115737185
0.0758,,,,13.9861036383,0.0470947287977
0.076,,,,13.229513797,-0.306115737185
0.0762,,,,12.4729239556,-0.306115737185
0.0764,,,,11.9238558994,-0.306115737185
0.0766,,,,11.5779862576,-0.306115737185
0.0768,,,,11.167266058,-0.306115737185
0.077,,,,10.6506232807,-0.306115737185
0.0772,,,,10.1339805033,0.0470947287977
0.0774,,,,9.41197762615,-0.306115737185
0.0776,,,,8.86290956987,-0.306115737185
0.0778,,,,8.55378857756,-0.306115737185
0.078,,,,8.45002768503,-0.306115737185
0.0782,,,,8.27709286415,-0.306115737185
0.0784,,,,7.86421097931,-0.306115737185
0.0786,,,,7.52050302282,-0.306115737185
0.0788,,,,7.41890381556,-0.306115737185
0.079,,,,7.17679506633,-0.306115737185
0.0792,,,,6.86767407402,0.0470947287977
0.0794,,,,6.62772701005,-0.306115737185
0.0796,,,,6.21484512521,-0.306115737185
0.0798,,,,5.87113716872,-0.306115737185
0.08,,,,5.80196324037,0.0470947287977
0.0802,,,,5.55985449115,-0.306115737185
0.0804,,,,5.01078643487,-0.306115737185
0.0806,,,,4.35795748606,-0.306115737185
0.0808,,,,3.56678068056,-0.306115737185
0.081,,,,3.01555093902,0.0470947287977
0.0812,,,,2.63725601835,-0.306115737185
0.0814,,,,1.98442706955,0.0470947287977
0.0816,,,,1.15866329987,-0.306115737185
0.0818,,,,0.162126394571,-0.306115737185
0.082,,,,-0.80198523181,0.0470947287977
0.0822,,,,-1.55857507314,-0.306115737185
0.0824,,,,-2.2805779503,-0.306115737185
0.0826,,,,-3.31170181977,0.0470947287977
0.0828,,,,-4.30823872506,-0.306115737185
0.083,,,,-4.99565463804,-0.306115737185
0.0832,,,,-5.51229741541,-0.306115737185
0.0834,,,,-5.78683144355,0.0470947287977
0.0836,,,,-6.13053940004,-0.306115737185
0.0838,,,,-6.68176914158,-0.306115737185
0.084,,,,-7.23083719786,0.0470947287977
0.0842,,,,-7.7820669394,-0.306115737185
0.0844,,,,-8.09118793171,-0.306115737185
0.0846,,,,-8.26412275259,-0.306115737185
0.0848,,,,-8.5732437449,-0.306115737185
0.085,,,,-9.05313787283,0.0470947287977
0.0852,,,,-9.15689876536,-0.306115737185
0.0854,,,,-9.15689876536,-0.306115737185
0.0856,,,,-9.26065965788,-0.306115737185
0.0858,,,,-9.53519368602,-0.306115737185
0.086,,,,-9.98266253504,-0.306115737185
0.0862,,,,-10.4647183482,-0.306115737185
0.0864,,,,-10.670078448,-0.306115737185
0.0866,,,,-10.8430132689,-0.306115737185
0.0868,,,,-10.9791994403,0.0470947287977
0.087,,,,-11.2904821179,-0.306115737185
0.0872,,,,-11.7703762458,-0.306115737185
0.0874,,,,-12.1832581307,-0.306115737185
0.0876,,,,-12.4232051946,-0.306115737185
0.0878,,,,-12.6307269797,-0.306115737185
0.088,,,,-13.0090219004,0.0470947287977
0.0882,,,,-13.2835559285,0.0470947287977
0.0884,,,,-13.5580899566,-0.306115737185
0.0886,,,,-13.6618508492,-0.306115737185
0.0888,,,,-13.5926769208,0.0470947287977
0.089,,,,-13.6964378133,-0.306115737185
0.0892,,,,-13.9709718415,-0.306115737185
0.0894,,,,-14.2476675549,0.0470947287977
0.0896,,,,-14.3838537263,-0.306115737185
0.0898,,,,-14.2822545191,-0.306115737185
0.09,,,,-14.0401457698,-0.306115737185
0.0902,,,,-13.83478567,-0.306115737185
0.0904,,,,-13.627263885,0.0470947287977
0.0906,,,,-13.387316821,-0.306115737185
0.0908,,,,-13.0781958287,-0.306115737185
0.091,,,,-12.7344878722,-0.306115737185
0.0912,,,,-12.3216059874,0.0470947287977
0.0914,,,,-12.1832581307,-0.306115737185
0.0916,,,,-12.0124849951,-0.306115737185
0.0918,,,,-11.5996031102,-0.306115737185
0.092,,,,-11.0483733687,-0.306115737185
0.0922,,,,-10.5663175555,-0.306115737185
0.0924,,,,-10.1880226348,-0.306115737185
0.0926,,,,-9.87890164251,-0.306115737185
0.0928,,,,-9.67354154272,-0.306115737185
0.093,,,,-9.29524662206,0.0470947287977
0.0932,,,,-8.91695170139,-0.306115737185
0.0934,,,,-8.4348958882,-0.306115737185
0.0936,,,,-7.95284007501,0.0470947287977
0.0938,,,,-7.60913211852,-0.306115737185
0.094,,,,-7.19625023368,-0.306115737185
0.0942,,,,-6.71635610575,-0.306115737185
0.0944,,,,-6.33806118509,-0.306115737185
0.0946,,,,-5.9943532286,-0.306115737185
0.0948,,,,-5.68307055102,0.0470947287977
0.095,,,,-5.33936259453,0.0470947287977
0.0952,,,,-4.79029453825,-0.306115737185
0.0954,,,,-4.27365176089,-0.306115737185
0.0956,,,,-3.75917066878,-0.306115737185
0.0958,,,,-3.13876699889,0.0470947287977
0.096,,,,-2.7950590424,-0.306115737185
0.0962,,,,-2.48593805009,-0.306115737185
0.0964,,,,-1.96929527272,0.0470947287977
0.0966,,,,-1.38564025227,-0.306115737185
0.0968,,,,-0.8689974749,-0.306115737185
0.097,,,,-0.25075549027,0.0470947287977
