"Latest: Time (s)","Latest: Z-Axis Acceleration (m/s²)","Latest: Potential (mV)"
0,4.94170968814,10.1018193271
0.0002,-0.895288345782,10.1018193271
0.0004,-5.75945337405,10.1018193271
0.0006,-10.5507734188,10.1018193271
0.0008,-14.6277426575,10.1018193271
0.001,-17.2478122258,10.1018193271
0.0012,-19.7174921508,10.1018193271
0.0014,-23.1976024923,9.74860886112
0.0016,-25.928114455,9.74860886112
0.0018,-27.4249613743,9.37185103074
0.002,-28.7361710776,8.99509320036
0.0022,-30.5690448564,8.61833536997
0.0024,-30.418655213,8.24157753959
0.0026,-29.7090040833,7.86481970921
0.0028,-29.4082247965,7.48806187883
0.003,-28.9218082937,7.11130404845
0.0032,-26.3040885635,6.35778838769
0.0034,-21.9991850216,5.9810305573
0.0036,-18.333437464,5.60427272692
0.0038,-14.7029374792,5.22751489654
0.004,-9.61553782399,4.49754660018
0.0042,-4.15216406036,4.1207887698
0.0044,1.31120970327,3.74403093942
0.0046,7.52418184566,2.99051527865
0.0048,13.1731928253,2.61375744827
0.005,18.6741639998,2.61375744827
0.0052,24.2855775687,2.23699961789
0.0054,29.7113539214,2.23699961789
0.0056,33.7530755874,1.86024178751
0.0058,36.6339771936,1.48348395713
0.006,39.8908529081,1.10672612675
0.0062,43.4085606605,1.10672612675
0.0064,45.053447385,1.10672612675
0.0066,45.6150587095,0.729968296364
0.0068,46.7382813586,0.729968296364
0.007,47.5983221317,0.729968296364
0.0072,47.3727376666,0.729968296364
0.0074,46.9239185746,0.729968296364
0.0076,46.625489126,0.729968296364
0.0078,45.8758907473,0.729968296364
0.008,44.8678101689,0.729968296364
0.0082,44.0430169685,1.10672612675
0.0084,43.1453787845,1.10672612675
0.0086,41.5357396327,1.10672612675
0.0088,39.4420338162,1.10672612675
0.009,37.7196024318,1.48348395713
0.0092,35.7363390096,1.48348395713
0.0094,32.9306322252,1.48348395713
0.0096,29.7865487431,1.86024178751
0.0098,26.6824125101,2.23699961789
0.01,23.0143151144,2.23699961789
0.0102,18.8598012159,2.23699961789
0.0104,14.4092077069,2.61375744827
0.0106,9.43225044612,2.23699961789
0.0108,4.19211130938,2.23699961789
0.011,-0.672053718881,2.61375744827
0.0112,-5.27303687122,2.61375744827
0.0114,-10.3251889537,2.61375744827
0.0116,-15.6005756631,2.61375744827
0.0118,-20.0535190103,2.61375744827
0.012,-24.0576432654,2.61375744827
0.0122,-28.1369623423,2.61375744827
0.0124,-31.6546700946,2.61375744827
0.0126,-34.460376879,2.23699961789
0.0128,-36.6668749281,1.86024178751
0.013,-37.9780846313,1.86024178751
0.0132,-39.3245419073,1.48348395713
0.0134,-39.8109584101,1.10672612675
0.0136,-39.8485558209,1.10672612675
0.0138,-40.074140286,1.10672612675
0.014,-39.5125289615,0.729968296364
0.0142,-38.5772933667,0.353210465983
0.0144,-38.0908768639,0
0.0146,-37.1180438582,0
0.0148,-35.6587943497,0
0.015,-34.7588063276,0
0.0152,-33.8611681436,0
0.0154,-32.7026979219,0
0.0156,-31.8779047215,0
0.0158,-31.3914882187,0
0.016,-30.418655213,0
0.0162,-29.6338092616,0
0.0164,-29.295432564,0
0.0166,-29.1473927588,0
0.0168,-28.39779438,0
0.017,-27.6129484286,0
0.0172,-28.1369623423,0
0.0174,-29.0721979371,0
0.0176,-28.6985736668,0
0.0178,-27.6881432503,0
0.018,-27.8009354828,0
0.0182,-28.2121571639,0
0.0184,-28.1369623423,0
0.0186,-27.6881432503,0
0.0188,-27.0513371041,0
0.019,-26.5649206012,0
0.0192,-26.1161015093,0
0.0194,-25.5920875956,0
0.0196,-24.3208251413,0
0.0198,-22.8615756329,0
0.02,-21.6631581621,0
0.0202,-20.4294931187,0
0.0204,-19.4919076857,0
0.0206,-18.3710348749,0
0.0208,-16.6486034905,0
0.021,-15.1517565711,0
0.0212,-13.9556889386,0
0.0214,-12.534036841,0
0.0216,-11.2228271377,0
0.0218,-9.95156468343,0
0.022,-8.34192553157,0
0.0222,-6.76988379055,0
0.0224,-5.87224560659,0
0.0226,-5.04980224432,0
0.0228,-3.36496827076,0
0.023,-1.2336650434,0
0.0232,0.338376697619,0
0.0234,1.31120970327,0
0.0236,2.92084885514,0
0.0238,4.71612522306,0
0.024,6.25056955323,0
0.0242,7.67222165086,0
0.0244,9.0938737485,0
0.0246,10.7787077221,0
0.0248,12.2755546414,0
0.025,13.5092196848,0
0.0252,15.1188588366,0
0.0254,16.7660953994,0
0.0256,17.5133439399,0
0.0258,18.187747497,0
0.026,19.4214125404,0
0.0262,20.7326222437,0
0.0264,21.5926630168,0
0.0266,21.9662872871,0
0.0268,22.4527037899,0
0.027,23.0519125253,0
0.0272,23.5007316172,0
0.0274,23.6135238498,0
0.0276,23.6887186715,0
0.0278,23.2751471522,0
0.028,23.4631342064,0
0.0282,24.3983698012,0
0.0284,24.0247455309,0
0.0286,23.7639134932,0
0.0288,22.7158856658,0
0.029,23.2751471522,0
0.0292,24.2855775687,0
0.0294,23.9495507092,0
0.0296,23.0143151144,0
0.0298,22.3775089682,0
0.03,22.4527037899,0
0.0302,22.6030934333,0
0.0304,22.4527037899,0
0.0306,21.2566361573,0
0.0308,20.0206212758,0
0.031,19.1981779135,0
0.0312,18.3381371404,0
0.0314,17.6637335833,0
0.0316,16.615705756,0
0.0318,15.2316510692,0
0.032,13.7724015607,0
0.0322,12.5363866791,0
0.0324,11.0395397598,0
0.0326,9.69308248386,0
0.0328,8.42182002962,0
0.033,7.11061032634,0
0.0332,5.65136081786,0
0.0334,4.30490354192,0
0.0336,3.40726535796,0
0.0338,2.62241940654,0
0.034,1.12557248722,0
0.0342,-0.408871842956,0
0.0344,-1.19606763255,0
0.0346,-1.64488672453,0
0.0348,-2.61771973019,0
0.035,-3.96417700613,0
0.0352,-5.01220483347,0
0.0354,-5.87224560659,0
0.0356,-6.95787084478,0
0.0358,-8.22913329903,0
0.036,-9.42755076976,0
0.0362,-10.8116054565,0
0.0364,-12.3460497867,0
0.0366,-13.617312241,0
0.0368,-14.4045080306,0
0.037,-15.3021462145,0
0.0372,-16.9493827772,0
0.0374,-18.333437464,0
0.0376,-18.8198539669,0
0.0378,-18.9326461994,0
0.038,-19.4190627022,0
0.0382,-19.7926869725,0
0.0384,-19.7174921508,0
0.0386,-19.5295050966,0
0.0388,-19.2686730588,0
0.039,-18.8950487885,0
0.0392,-18.5942695018,0
0.0394,-18.5566720909,0
0.0396,-18.4462296966,0
0.0398,-17.9598131937,0
0.04,-17.3982018692,0
0.0402,-17.210214815,0
0.0404,-17.3606044584,0
0.0406,-17.3606044584,0
0.0408,-17.1350199933,0
0.041,-17.0598251716,0
0.0412,-16.9493827772,0
0.0414,-16.7237983122,0
0.0416,-16.5005636853,0
0.0418,-16.2373818093,0
0.042,-15.7133678957,0
0.0422,-14.9285219442,0
0.0424,-14.3669106197,0
0.0426,-13.9180915277,0
0.0428,-12.9076611112,0
0.043,-11.4108141919,0
0.0432,-10.1747993103,0
0.0434,-9.20196630468,0
0.0436,-8.15628831551,0
0.0438,-6.92027343393,0
0.044,-5.75945337405,0
0.0442,-4.7866203684,0
0.0444,-3.74094237923,0
0.0446,-2.65531714103,0
0.0448,-1.94331617313,0
0.045,-1.30651002692,0
0.0452,-0.298429448594,0
0.0454,0.451168930158,0
0.0456,0.712000967906,0
0.0458,0.975182843831,0
0.046,1.76002879525,0
0.0462,2.84565403344,0
0.0464,3.5200575905,0
0.0466,4.19211130938,0
0.0468,5.01690450983,0
0.047,5.95214010464,0
0.0472,6.8497782886,0
0.0474,7.97300093764,0
0.0476,9.02102876498,0
0.0478,9.8810695381,0
0.048,10.7035129004,0
0.0482,11.7891381386,0
0.0484,12.9123607876,0
0.0486,13.6220119173,0
0.0488,13.9227912041,0
0.049,14.3340128852,0
0.0492,14.8580267989,0
0.0494,15.1188588366,0
0.0496,15.2316510692,0
0.0498,15.1940536583,0
0.05,14.9684691933,0
0.0502,14.1836232418,0
0.0504,13.7724015607,0
0.0506,14.2588180635,0
0.0508,13.4363747013,0
0.051,12.6115815008,0
0.0512,12.3131520522,0
0.0514,13.3235824687,0
0.0516,13.8099989716,0
0.0518,12.9852057711,0
0.052,11.9771251928,0
0.0522,11.5259562626,0
0.0524,12.2379572305,0
0.0526,12.8371659659,0
0.0528,13.022803182,0
0.053,12.7243737334,0
0.0532,12.2003598197,0
0.0534,11.9771251928,0
0.0536,11.7139433169,0
0.0538,11.2651242249,0
0.054,10.4050834518,0
0.0542,9.61788766217,0
0.0544,9.24426339188,0
0.0546,9.02102876498,0
0.0548,8.083443332,0
0.055,6.7745834669,0
0.0552,5.65136081786,0
0.0554,4.45529318531,0
0.0556,3.33207053627,0
0.0558,2.65766697921,0
0.056,1.83522361694,0
0.0562,1.08797507637,0
0.0564,0.263181875926,0
0.0566,-0.484066664649,0
0.0568,-0.857690934936,0
0.057,-1.2336650434,0
0.0572,-1.94331617313,0
0.0574,-2.54252490849,0
0.0576,-2.58012231934,0
0.0578,-2.69291455188,0
0.058,-3.14173364386,0
0.0582,-3.74094237923,0
0.0584,-4.37539868726,0
0.0586,-5.27303687122,0
0.0588,-6.06023266082,0
0.059,-6.58424657449,0
0.0592,-7.18110547168,0
0.0594,-8.00589867213,0
0.0596,-8.82834203439,0
0.0598,-9.38995335891,0
0.06,-9.80117504005,0
0.0602,-10.3251889537,0
0.0604,-10.9243976891,0
0.0606,-11.1123847433,0
0.0608,-10.8492028674,0
0.061,-10.5507734188,0
0.0612,-10.249994132,0
0.0614,-10.0267595051,0
0.0616,-9.87636986174,0
0.0618,-9.7635776292,0
0.062,-9.50274559145,0
0.0622,-9.01632908863,0
0.0624,-8.86593944524,0
0.0626,-8.7531472127,0
0.0628,-8.45471776411,0
0.063,-8.08109349382,0
0.0632,-8.04349608297,0
0.0634,-8.37952294241,0
0.0636,-8.79074462355,0
0.0638,-9.12912132117,0
0.064,-9.27716112637,0
0.0642,-9.31475853722,0
0.0644,-9.16436889383,0
0.0646,-9.12912132117,0
0.0648,-9.09152391032,0
0.065,-8.86593944524,0
0.0652,-8.34192553157,0
0.0654,-7.78031420705,0
0.0656,-7.36909252591,0
0.0658,-6.80748120139,0
0.066,-5.75945337405,0
0.0662,-4.63858056319,0
0.0664,-3.85138477359,0
0.0666,-3.14173364386,0
0.0668,-2.54252490849,0
0.067,-2.13130322736,0
0.0672,-1.68248413538,0
0.0674,-1.19606763255,0
0.0676,-0.820093524089,0
0.0678,-0.747248540574,0
0.068,-0.747248540574,0
0.0682,-0.596858897188,0
0.0684,-0.333677021263,0
0.0686,-0.371274432109,0
0.0688,-0.446469253802,0
0.069,-0.185637216055,0
0.0692,0.300779286772,0
0.0694,0.899988022138,0
0.0696,1.53679416835,0
0.0698,2.17125047639,0
0.07,2.84565403344,0
0.0702,3.33207053627,0
0.0704,4.11691648769,0
0.0706,5.01690450983,0
0.0708,5.57851583435,0
0.071,5.98973751548,0
0.0712,6.51375142916,0
0.0714,7.03776534283,0
0.0716,7.41138961312,0
0.0718,7.29859738058,0
0.072,6.96257052114,0
0.0722,6.51375142916,0
0.0724,6.21297214238,0
0.0726,6.55134884,0
0.0728,6.10017990984,0
0.073,5.72655563956,0
0.0732,5.09209933152,0
0.0734,5.50332101266,0
0.0736,6.32576437492,0
0.0738,5.98973751548,0
0.074,5.20254172588,0
0.0742,4.94170968814,0
0.0744,5.8393478721,0
0.0746,6.92497311029,0
0.0748,7.29859738058,0
0.075,6.92497311029,0
0.0752,6.81218087775,0
0.0754,7.26099996973,0
0.0756,7.41138961312,0
0.0758,7.37379220227,0
0.076,7.22340255888,0
0.0762,6.88737569944,0
0.0764,6.36336178577,0
0.0766,6.10017990984,0
0.0768,5.7641530504,0
0.077,5.01690450983,0
0.0772,4.04407150418,0
0.0774,3.21927830373,0
0.0776,2.65766697921,0
0.0778,2.24644529808,0
0.078,1.83522361694,0
0.0782,1.53679416835,0
0.0784,1.12557248722,0
0.0786,0.601558573544,0
0.0788,0.488766341005,0
0.079,0.712000967906,0
0.0792,0.937585432985,0
0.0794,0.899988022138,0
0.0796,0.899988022138,0
0.0798,1.08797507637,0
0.08,1.12557248722,0
0.0802,0.899988022138,0
0.0804,0.451168930158,0
0.0806,0.0399472490244,0
0.0808,-0.333677021263,0
0.081,-0.709651129728,0
0.0812,-1.12087281086,0
0.0814,-1.60728931369,0
0.0816,-2.54252490849,0
0.0818,-3.40256568161,0
0.082,-3.7761899519,0
0.0822,-3.88898218444,0
0.0824,-4.22735888205,0
0.0826,-4.4881909198,0
0.0828,-4.26260645472,0
0.083,-3.88898218444,0
0.0832,-3.59055273584,0
0.0834,-3.36496827076,0
0.0836,-3.14173364386,0
0.0838,-2.84095435709,0
0.084,-2.50492749765,0
0.0842,-2.05610840567,0
0.0844,-1.60728931369,0
0.0846,-1.34410743776,0
0.0848,-1.4568996703,0
0.085,-1.53209449199,0
0.0852,-1.49449708115,0
0.0854,-1.75767895707,0
0.0856,-2.35453785426,0
0.0858,-2.91614917878,0
0.086,-3.21692846555,0
0.0862,-3.51535791415,0
0.0864,-3.7761899519,0
0.0866,-4.03937182782,0
0.0868,-4.26260645472,0
0.087,-4.45059350895,0
0.0872,-4.33780127642,0
0.0874,-4.03937182782,0
0.0876,-3.66574755753,0
0.0878,-3.44016309245,0
0.088,-3.10413623301,0
0.0882,-2.58012231934,0
0.0884,-1.98091358398,0
0.0886,-1.75767895707,0
0.0888,-1.64488672453,0
0.089,-1.38170484861,0
0.0892,-1.2336650434,0
0.0894,-1.2336650434,0
0.0896,-1.2336650434,0
0.0898,-1.34410743776,0
0.09,-1.79292652974,0
0.0902,-2.16890063821,0
0.0904,-2.20649804905,0
0.0906,-2.13130322736,0
0.0908,-2.27934303257,0
0.091,-2.50492749765,0
0.0912,-2.39213526511,0
0.0914,-2.2440954599,0
0.0916,-1.83052394059,0
0.0918,-1.49449708115,0
0.092,-1.34410743776,0
0.0922,-1.04567798917,0
0.0924,-0.672053718881,0
0.0926,0.152739481564,0
0.0928,0.899988022138,0
0.093,1.01278025468,0
0.0932,0.749598378752,0
0.0934,0.824793200445,0
0.0936,1.42400193581,0
0.0938,1.72243138441,0
0.094,1.38640452496,0
0.0942,0.862390611292,0
0.0944,0.563961162698,0
0.0946,0.563961162698,0
0.0948,0.451168930158,0
0.095,0.152739481564,0
0.0952,0.00234983817791,0
0.0954,0.00234983817791,0
0.0956,0.00234983817791,0
0.0958,0.263181875926,0
0.096,0.451168930158,0
0.0962,0.563961162698,0
0.0964,0.639155984391,0
0.0966,0.975182843831,0
0.0968,1.53679416835,0
0.097,2.02321067118,0
0.0972,2.39683494146,0
0.0974,2.69526439006,0
0.0976,2.99604367683,0
0.0978,3.07123849852,0
0.098,3.14408348204,0
0.0982,3.25687571458,0
0.0984,3.03364108768,0
0.0986,2.8080566226,0
0.0988,2.69526439006,0
0.099,2.62241940654,0
0.0992,2.24644529808,0
0.0994,1.83522361694,0
0.0996,1.38640452496,0
0.0998,1.19841747073,0
0.1,1.16316989806,0
0.1002,0.937585432985,0
0.1004,0.862390611292,0
0.1006,0.975182843831,0
0.1008,1.05037766552,0
0.101,1.19841747073,0
0.1012,1.4991967575,0
0.1014,1.72243138441,0
0.1016,1.72243138441,0
0.1018,1.7976262061,0
0.102,2.13600290372,0
0.1022,2.54722458485,0
0.1024,2.54722458485,0
0.1026,2.39683494146,0
0.1028,2.09840549287,0
0.103,1.87282102779,0
0.1032,1.61198899004,0
0.1034,1.16316989806,0
0.1036,0.787195789599,0
0.1038,0.526363751851,0
0.104,0.187987054233,0
0.1042,0.0399472490244,0
0.1044,-0.0352475726686,0
0.1046,-0.333677021263,0
0.1048,-0.596858897188,0
0.105,-0.596858897188,0
0.1052,-0.371274432109,0
0.1054,-0.185637216055,0
0.1056,-0.0728449835151,0
0.1058,0.115142070717,0
0.106,0.338376697619,0
0.1062,0.563961162698,0
0.1064,0.749598378752,0
0.1066,0.787195789599,0
0.1068,0.676753395237,0
0.107,0.601558573544,0
0.1072,0.526363751851,0
0.1074,0.563961162698,0
0.1076,0.300779286772,0
0.1078,-0.148039805208,0
0.108,-0.596858897188,0
0.1082,-0.895288345782,0
0.1084,-1.12087281086,0
0.1086,-1.4568996703,0
0.1088,-1.68248413538,0
0.109,-1.79292652974,0
0.1092,-1.94331617313,0
0.1094,-1.98091358398,0
0.1096,-1.83052394059,0
0.1098,-1.79292652974,0
0.11,-1.83052394059,0
0.1102,-1.79292652974,0
0.1104,-1.49449708115,0
0.1106,-1.15847022171,0
0.1108,-1.08327540001,0
0.111,-1.19606763255,0
0.1112,-1.2336650434,0
0.1114,-1.27126245425,0
0.1116,-1.38170484861,0
0.1118,-1.56969190284,0
0.112,-1.68248413538,0
0.1122,-1.86812135144,0
0.1124,-2.09370581651,0
0.1126,-2.27934303257,0
0.1128,-2.4673300868,0
0.113,-2.61771973019,0
0.1132,-2.84095435709,0
0.1134,-2.99134400047,0
0.1136,-2.65531714103,0
0.1138,-2.42973267596,0
0.114,-2.39213526511,0
0.1142,-2.2440954599,0
0.1144,-2.05610840567,0
0.1146,-1.75767895707,0
0.1148,-1.4568996703,0
0.115,-1.2336650434,0
0.1152,-0.970483167475,0
0.1154,-0.784845951421,0
0.1156,-0.634456308035,0
0.1158,-0.446469253802,0
0.116,-0.371274432109,0
0.1162,-0.446469253802,0
0.1164,-0.596858897188,0
0.1166,-0.596858897188,0
0.1168,-0.484066664649,0
0.117,-0.484066664649,0
0.1172,-0.446469253802,0
0.1174,-0.484066664649,0
0.1176,-0.559261486342,0
0.1178,-0.484066664649,0
0.118,-0.333677021263,0
0.1182,-0.260832037748,0
0.1184,-0.148039805208,0
0.1186,0.0775446598709,0
0.1188,0.451168930158,0
0.119,0.899988022138,0
0.1192,1.19841747073,0
0.1194,1.27361229243,0
0.1196,1.46159934666,0
0.1198,1.72243138441,0
0.12,1.91041843864,0
0.1202,2.09840549287,0
0.1204,2.24644529808,0
0.1206,2.39683494146,0
0.1208,2.20884788723,0
0.121,2.13600290372,0
0.1212,2.09840549287,0
0.1214,1.94801584948,0
0.1216,1.68483397356,0
0.1218,1.53679416835,0
0.122,1.64958640089,0
0.1222,1.72243138441,0
0.1224,1.64958640089,0
0.1226,1.53679416835,0
0.1228,1.53679416835,0
0.123,1.64958640089,0
0.1232,1.83522361694,0
0.1234,2.02321067118,0
0.1236,2.20884788723,0
0.1238,2.43443235231,0
0.124,2.54722458485,0
0.1242,2.73286180091,0
0.1244,2.84565403344,0
0.1246,2.73286180091,0
0.1248,2.54722458485,0
0.125,2.47202976316,0
0.1252,2.39683494146,0
0.1254,2.13600290372,0
0.1256,1.91041843864,0
0.1258,1.64958640089,0
0.126,1.34880711412,0
0.1262,1.12557248722,0
0.1264,0.899988022138,0
0.1266,0.712000967906,0
0.1268,0.526363751851,0
0.127,0.338376697619,0
0.1272,0.338376697619,0
0.1274,0.526363751851,0
0.1276,0.563961162698,0
0.1278,0.488766341005,0
0.128,0.451168930158,0
0.1282,0.563961162698,0
0.1284,0.676753395237,0
0.1286,0.676753395237,0
0.1288,0.712000967906,0
0.129,0.676753395237,0
0.1292,0.488766341005,0
0.1294,0.300779286772,0
0.1296,0.152739481564,0
0.1298,-0.148039805208,0
0.13,-0.559261486342,0
0.1302,-0.895288345782,0
0.1304,-1.08327540001,0
0.1306,-1.27126245425,0
0.1308,-1.56969190284,0
0.131,-1.90571876228,0
0.1312,-2.09370581651,0
0.1314,-2.20649804905,0
0.1316,-2.2440954599,0
0.1318,-2.16890063821,0
0.132,-2.09370581651,0
0.1322,-2.09370581651,0
0.1324,-2.01851099482,0
0.1326,-1.86812135144,0
0.1328,-1.68248413538,0
0.133,-1.68248413538,0
0.1332,-1.75767895707,0
0.1334,-1.75767895707,0
0.1336,-1.64488672453,0
0.1338,-1.64488672453,0
0.134,-1.83052394059,0
0.1342,-2.05610840567,0
0.1344,-2.2440954599,0
0.1346,-2.4673300868,0
0.1348,-2.61771973019,0
0.135,-2.69291455188,0
0.1352,-2.84095435709,0
0.1354,-2.99134400047,0
0.1356,-3.06653882217,0
0.1358,-2.91614917878,0
0.136,-2.7657595354,0
0.1362,-2.69291455188,0
0.1364,-2.58012231934,0
0.1366,-2.2440954599,0
0.1368,-1.86812135144,0
0.137,-1.56969190284,0
0.1372,-1.30651002692,0
0.1374,-1.12087281086,0
0.1376,-0.932885756629,0
0.1378,-0.747248540574,0
0.138,-0.521664075495,0
0.1382,-0.408871842956,0
0.1384,-0.484066664649,0
0.1386,-0.559261486342,0
0.1388,-0.484066664649,0
0.139,-0.446469253802,0
0.1392,-0.484066664649,0
0.1394,-0.634456308035,0
0.1396,-0.709651129728,0
0.1398,-0.634456308035,0
0.14,-0.559261486342,0
0.1402,-0.371274432109,0
0.1404,-0.223234626901,0
0.1406,-0.0728449835151,0
0.1408,0.115142070717,0
0.141,0.451168930158,0
0.1412,0.824793200445,0
0.1414,1.08797507637,0
0.1416,1.31120970327,0
0.1418,1.5743915792,0
0.142,1.94801584948,0
0.1422,2.20884788723,0
0.1424,2.24644529808,0
0.1426,2.24644529808,0
0.1428,2.24644529808,0
0.143,2.17125047639,0
0.1432,2.17125047639,0
0.1434,2.17125047639,0
0.1436,2.06080808202,0
0.1438,1.87282102779,0
0.144,1.72243138441,0
0.1442,1.68483397356,0
0.1444,1.68483397356,0
0.1446,1.53679416835,0
0.1448,1.53679416835,0
0.145,1.72243138441,0
0.1452,1.91041843864,0
0.1454,2.09840549287,0
0.1456,2.24644529808,0
0.1458,2.39683494146,0
0.146,2.43443235231,0
0.1462,2.509627174,0
0.1464,2.65766697921,0
0.1466,2.77045921175,0
0.1468,2.69526439006,0
0.147,2.54722458485,0
0.1472,2.43443235231,0
0.1474,2.13600290372,0
0.1476,1.83522361694,0
0.1478,1.4991967575,0
0.148,1.19841747073,0
0.1482,1.05037766552,0
0.1484,0.824793200445,0
0.1486,0.639155984391,0
0.1488,0.488766341005,0
0.149,0.300779286772,0
0.1492,0.115142070717,0
0.1494,0.0399472490244,0
0.1496,0.152739481564,0
0.1498,0.187987054233,0
0.15,0.152739481564,0
0.1502,0.225584465079,0
0.1504,0.338376697619,0
0.1506,0.451168930158,0
0.1508,0.375974108465,0
0.151,0.263181875926,0
0.1512,0.187987054233,0
0.1514,0.0399472490244,0
0.1516,-0.0728449835151,0
0.1518,-0.148039805208,0
0.152,-0.408871842956,0
0.1522,-0.747248540574,0
0.1524,-1.04567798917,0
0.1526,-1.2336650434,0
0.1528,-1.41930225946,0
0.153,-1.64488672453,0
0.1532,-1.86812135144,0
0.1534,-1.94331617313,0
0.1536,-1.90571876228,0
0.1538,-1.86812135144,0
0.154,-1.86812135144,0
0.1542,-1.86812135144,0
0.1544,-1.83052394059,0
0.1546,-1.75767895707,0
0.1548,-1.60728931369,0
0.155,-1.41930225946,0
0.1552,-1.34410743776,0
0.1554,-1.34410743776,0
0.1556,-1.34410743776,0
